
1  2023-10-31 14:39:02.412972
2  2023-10-31 14:39:02.445886
3  2023-10-31 14:39:02.477800
4  2023-10-31 14:39:02.509716
5  2023-10-31 14:39:02.541629
6  2023-10-31 14:39:02.573544
7  2023-10-31 14:39:02.605459
8  2023-10-31 14:39:02.637373
9  2023-10-31 14:39:02.685245
10  2023-10-31 14:39:02.717160
11  2023-10-31 14:39:02.749076
12  2023-10-31 14:39:02.780988
13  2023-10-31 14:39:02.813901
14  2023-10-31 14:39:02.845815
15  2023-10-31 14:39:02.877779
16  2023-10-31 14:39:02.909644
17  2023-10-31 14:39:02.941589
18  2023-10-31 14:39:02.973474
19  2023-10-31 14:39:03.005389
20  2023-10-31 14:39:03.037303
21  2023-10-31 14:39:03.085177
22  2023-10-31 14:39:03.117090
23  2023-10-31 14:39:03.149034
24  2023-10-31 14:39:03.180956
25  2023-10-31 14:39:03.213833
26  2023-10-31 14:39:03.245746
27  2023-10-31 14:39:03.277689
28  2023-10-31 14:39:03.309577
29  2023-10-31 14:39:03.341492
30  2023-10-31 14:39:03.373405
31  2023-10-31 14:39:03.405320
32  2023-10-31 14:39:03.437235
33  2023-10-31 14:39:03.485107
34  2023-10-31 14:39:03.518019
35  2023-10-31 14:39:03.549934
36  2023-10-31 14:39:03.581848
37  2023-10-31 14:39:03.613810
38  2023-10-31 14:39:03.645709
39  2023-10-31 14:39:03.677639
40  2023-10-31 14:39:03.709507
41  2023-10-31 14:39:03.741450
42  2023-10-31 14:39:03.773369
43  2023-10-31 14:39:03.805250
44  2023-10-31 14:39:03.837191
45  2023-10-31 14:39:03.885036
46  2023-10-31 14:39:03.916953
47  2023-10-31 14:39:03.949863
48  2023-10-31 14:39:03.981778
49  2023-10-31 14:39:04.013730
50  2023-10-31 14:39:04.045611
51  2023-10-31 14:39:04.077559
52  2023-10-31 14:39:04.109480
53  2023-10-31 14:39:04.141379
54  2023-10-31 14:39:04.173293
55  2023-10-31 14:39:04.205222
56  2023-10-31 14:39:04.237126
57  2023-10-31 14:39:04.284968
58  2023-10-31 14:39:04.316912
59  2023-10-31 14:39:04.349794
60  2023-10-31 14:39:04.381752
61  2023-10-31 14:39:04.413668
62  2023-10-31 14:39:04.445564
63  2023-10-31 14:39:04.477482
64  2023-10-31 14:39:04.509405
65  2023-10-31 14:39:04.541282
66  2023-10-31 14:39:04.573236
67  2023-10-31 14:39:04.605110
68  2023-10-31 14:39:04.637060
69  2023-10-31 14:39:04.685896
70  2023-10-31 14:39:04.717809
71  2023-10-31 14:39:04.749724
72  2023-10-31 14:39:04.781638
73  2023-10-31 14:39:04.813597
74  2023-10-31 14:39:04.845503
75  2023-10-31 14:39:04.877422
76  2023-10-31 14:39:04.909352
77  2023-10-31 14:39:04.941215
78  2023-10-31 14:39:04.973159
79  2023-10-31 14:39:05.005091
80  2023-10-31 14:39:05.036986
81  2023-10-31 14:39:05.085825
82  2023-10-31 14:39:05.117740
83  2023-10-31 14:39:05.149655
84  2023-10-31 14:39:05.181597
85  2023-10-31 14:39:05.213485
86  2023-10-31 14:39:05.245438
87  2023-10-31 14:39:05.277342
88  2023-10-31 14:39:05.309257
89  2023-10-31 14:39:05.341170
90  2023-10-31 14:39:05.373111
91  2023-10-31 14:39:05.405036
92  2023-10-31 14:39:05.437885
93  2023-10-31 14:39:05.485757
94  2023-10-31 14:39:05.517726
95  2023-10-31 14:39:05.549586
96  2023-10-31 14:39:05.581501
97  2023-10-31 14:39:05.613416
98  2023-10-31 14:39:05.645331
99  2023-10-31 14:39:05.677271
100  2023-10-31 14:39:05.709195
101  2023-10-31 14:39:05.741108
102  2023-10-31 14:39:05.773016
103  2023-10-31 14:39:05.804948
104  2023-10-31 14:39:05.837816
105  2023-10-31 14:39:05.885689
106  2023-10-31 14:39:05.917602
107  2023-10-31 14:39:05.949558
108  2023-10-31 14:39:05.981482
109  2023-10-31 14:39:06.013372
110  2023-10-31 14:39:06.045299
111  2023-10-31 14:39:06.077210
112  2023-10-31 14:39:06.109118
113  2023-10-31 14:39:06.141045
114  2023-10-31 14:39:06.172959
115  2023-10-31 14:39:06.205832
116  2023-10-31 14:39:06.237777
117  2023-10-31 14:39:06.285619
118  2023-10-31 14:39:06.317533
119  2023-10-31 14:39:06.349476
120  2023-10-31 14:39:06.381366
121  2023-10-31 14:39:06.413338
122  2023-10-31 14:39:06.445219
123  2023-10-31 14:39:06.477106
124  2023-10-31 14:39:06.510019
125  2023-10-31 14:39:06.540988
126  2023-10-31 14:39:06.573884
127  2023-10-31 14:39:06.605762
128  2023-10-31 14:39:06.637712
129  2023-10-31 14:39:06.685578
130  2023-10-31 14:39:06.717464
131  2023-10-31 14:39:06.749378
132  2023-10-31 14:39:06.781332
133  2023-10-31 14:39:06.813255
134  2023-10-31 14:39:06.845158
135  2023-10-31 14:39:06.877073
136  2023-10-31 14:39:06.908955
137  2023-10-31 14:39:06.940906
138  2023-10-31 14:39:06.973778
139  2023-10-31 14:39:07.005739
140  2023-10-31 14:39:07.037644
141  2023-10-31 14:39:07.085480
142  2023-10-31 14:39:07.117433
143  2023-10-31 14:39:07.150306
144  2023-10-31 14:39:07.181260
145  2023-10-31 14:39:07.213138
146  2023-10-31 14:39:07.339800
147  2023-10-31 14:39:07.343790
148  2023-10-31 14:39:07.373709
149  2023-10-31 14:39:07.405660
150  2023-10-31 14:39:07.437576
151  2023-10-31 14:39:07.485441
152  2023-10-31 14:39:07.517371
153  2023-10-31 14:39:07.549278
154  2023-10-31 14:39:07.581197
155  2023-10-31 14:39:07.613097
156  2023-10-31 14:39:07.646000
157  2023-10-31 14:39:07.676927
158  2023-10-31 14:39:07.709846
159  2023-10-31 14:39:07.741731
160  2023-10-31 14:39:07.773639
161  2023-10-31 14:39:07.805581
162  2023-10-31 14:39:07.837504
163  2023-10-31 14:39:07.885341
164  2023-10-31 14:39:07.917290
165  2023-10-31 14:39:07.949204
166  2023-10-31 14:39:07.981116
167  2023-10-31 14:39:08.014029
168  2023-10-31 14:39:08.044915
169  2023-10-31 14:39:08.077869
170  2023-10-31 14:39:08.109743
171  2023-10-31 14:39:08.141657
172  2023-10-31 14:39:08.173602
173  2023-10-31 14:39:08.205520
174  2023-10-31 14:39:08.237440
175  2023-10-31 14:39:08.285273
176  2023-10-31 14:39:08.317194
177  2023-10-31 14:39:08.349129
178  2023-10-31 14:39:08.381064
179  2023-10-31 14:39:08.412973
180  2023-10-31 14:39:08.445898
181  2023-10-31 14:39:08.477808
182  2023-10-31 14:39:08.509710
183  2023-10-31 14:39:08.541587
184  2023-10-31 14:39:08.573531
185  2023-10-31 14:39:08.605417
186  2023-10-31 14:39:08.637370
187  2023-10-31 14:39:08.685203
188  2023-10-31 14:39:08.717144
189  2023-10-31 14:39:08.749069
190  2023-10-31 14:39:08.781986
191  2023-10-31 14:39:08.813912
192  2023-10-31 14:39:08.845847
193  2023-10-31 14:39:08.877693
194  2023-10-31 14:39:08.909639
195  2023-10-31 14:39:08.941546
196  2023-10-31 14:39:08.973458
197  2023-10-31 14:39:09.005347
198  2023-10-31 14:39:09.037262
199  2023-10-31 14:39:09.085145
200  2023-10-31 14:39:09.118047
201  2023-10-31 14:39:09.149962
202  2023-10-31 14:39:09.180907
203  2023-10-31 14:39:09.213818
204  2023-10-31 14:39:09.245743
205  2023-10-31 14:39:09.277663
206  2023-10-31 14:39:09.309580
207  2023-10-31 14:39:09.341452
208  2023-10-31 14:39:09.373410
209  2023-10-31 14:39:09.405278
210  2023-10-31 14:39:09.437220
211  2023-10-31 14:39:09.485067
212  2023-10-31 14:39:09.517014
213  2023-10-31 14:39:09.549892
214  2023-10-31 14:39:09.581843
215  2023-10-31 14:39:09.613781
216  2023-10-31 14:39:09.645636
217  2023-10-31 14:39:09.677551
218  2023-10-31 14:39:09.709501
219  2023-10-31 14:39:09.741383
220  2023-10-31 14:39:09.773327
221  2023-10-31 14:39:09.805209
222  2023-10-31 14:39:09.837153
223  2023-10-31 14:39:09.885992
224  2023-10-31 14:39:09.916915
225  2023-10-31 14:39:09.949850
226  2023-10-31 14:39:09.981741
227  2023-10-31 14:39:10.013684
228  2023-10-31 14:39:10.045567
229  2023-10-31 14:39:10.077509
230  2023-10-31 14:39:10.109427
231  2023-10-31 14:39:10.141341
232  2023-10-31 14:39:10.173284
233  2023-10-31 14:39:10.205143
234  2023-10-31 14:39:10.237059
235  2023-10-31 14:39:10.284927
236  2023-10-31 14:39:10.316878
237  2023-10-31 14:39:10.349793
238  2023-10-31 14:39:10.381668
239  2023-10-31 14:39:10.413587
240  2023-10-31 14:39:10.445532
241  2023-10-31 14:39:10.477412
242  2023-10-31 14:39:10.509330
243  2023-10-31 14:39:10.541267
244  2023-10-31 14:39:10.573159
245  2023-10-31 14:39:10.605071
246  2023-10-31 14:39:10.637029
247  2023-10-31 14:39:10.685855
248  2023-10-31 14:39:10.717811
249  2023-10-31 14:39:10.761651
250  2023-10-31 14:39:10.781599
251  2023-10-31 14:39:10.813515
252  2023-10-31 14:39:10.845428
253  2023-10-31 14:39:10.877382
254  2023-10-31 14:39:10.909293
255  2023-10-31 14:39:10.941207
256  2023-10-31 14:39:10.973116
257  2023-10-31 14:39:11.005006
258  2023-10-31 14:39:11.037957
259  2023-10-31 14:39:11.085785
260  2023-10-31 14:39:11.117730
261  2023-10-31 14:39:11.149619
262  2023-10-31 14:39:11.181578
263  2023-10-31 14:39:11.213471
264  2023-10-31 14:39:11.245395
265  2023-10-31 14:39:11.277277
266  2023-10-31 14:39:11.309229
267  2023-10-31 14:39:11.341129
268  2023-10-31 14:39:11.373024
269  2023-10-31 14:39:11.404935
270  2023-10-31 14:39:11.437879
271  2023-10-31 14:39:11.485717
272  2023-10-31 14:39:11.517632
273  2023-10-31 14:39:11.549581
274  2023-10-31 14:39:11.581493
275  2023-10-31 14:39:11.613402
276  2023-10-31 14:39:11.645321
277  2023-10-31 14:39:11.677208
278  2023-10-31 14:39:11.709122
279  2023-10-31 14:39:11.741071
280  2023-10-31 14:39:11.773005
281  2023-10-31 14:39:11.805898
282  2023-10-31 14:39:11.837780
283  2023-10-31 14:39:11.885649
284  2023-10-31 14:39:11.917563
285  2023-10-31 14:39:11.949476
286  2023-10-31 14:39:11.981390
287  2023-10-31 14:39:12.013331
288  2023-10-31 14:39:12.045224
289  2023-10-31 14:39:12.077140
290  2023-10-31 14:39:12.109055
291  2023-10-31 14:39:12.141962
292  2023-10-31 14:39:12.172916
293  2023-10-31 14:39:12.205834
294  2023-10-31 14:39:12.237712
295  2023-10-31 14:39:12.285584
296  2023-10-31 14:39:12.317496
297  2023-10-31 14:39:12.349450
298  2023-10-31 14:39:12.381380
299  2023-10-31 14:39:12.413267
300  2023-10-31 14:39:12.445158
301  2023-10-31 14:39:12.477102
302  2023-10-31 14:39:12.509009
303  2023-10-31 14:39:12.541893
304  2023-10-31 14:39:12.573833
305  2023-10-31 14:39:12.605766
306  2023-10-31 14:39:12.637667
307  2023-10-31 14:39:12.685551
308  2023-10-31 14:39:12.717424
309  2023-10-31 14:39:12.749376
310  2023-10-31 14:39:12.781252
311  2023-10-31 14:39:12.881985
312  2023-10-31 14:39:12.908937
313  2023-10-31 14:39:12.941872
314  2023-10-31 14:39:12.973771
315  2023-10-31 14:39:13.005689
316  2023-10-31 14:39:13.037605
317  2023-10-31 14:39:13.085465
318  2023-10-31 14:39:13.117358
319  2023-10-31 14:39:13.149269
320  2023-10-31 14:39:13.181185
321  2023-10-31 14:39:13.213102
322  2023-10-31 14:39:13.245047
323  2023-10-31 14:39:13.277960
324  2023-10-31 14:39:13.309885
325  2023-10-31 14:39:13.341797
326  2023-10-31 14:39:13.373696
327  2023-10-31 14:39:13.405611
328  2023-10-31 14:39:13.437535
329  2023-10-31 14:39:13.485408
330  2023-10-31 14:39:13.517313
331  2023-10-31 14:39:13.549246
332  2023-10-31 14:39:13.581142
333  2023-10-31 14:39:13.613057
334  2023-10-31 14:39:13.644972
335  2023-10-31 14:39:13.677857
336  2023-10-31 14:39:13.709797
337  2023-10-31 14:39:13.741685
338  2023-10-31 14:39:13.773639
339  2023-10-31 14:39:13.805550
340  2023-10-31 14:39:13.837466
341  2023-10-31 14:39:13.885328
342  2023-10-31 14:39:13.917216
343  2023-10-31 14:39:13.950179
344  2023-10-31 14:39:13.982044
345  2023-10-31 14:39:14.012963
346  2023-10-31 14:39:14.045939
347  2023-10-31 14:39:14.077791
348  2023-10-31 14:39:14.109727
349  2023-10-31 14:39:14.141656
350  2023-10-31 14:39:14.173595
351  2023-10-31 14:39:14.205490
352  2023-10-31 14:39:14.237388
353  2023-10-31 14:39:14.285235
354  2023-10-31 14:39:14.317146
355  2023-10-31 14:39:14.349107
356  2023-10-31 14:39:14.381974
357  2023-10-31 14:39:14.412925
358  2023-10-31 14:39:14.445852
359  2023-10-31 14:39:14.477759
360  2023-10-31 14:39:14.509658
361  2023-10-31 14:39:14.541597
362  2023-10-31 14:39:14.573465
363  2023-10-31 14:39:14.605377
364  2023-10-31 14:39:14.637289
365  2023-10-31 14:39:14.685205
366  2023-10-31 14:39:14.717081
367  2023-10-31 14:39:14.748992
368  2023-10-31 14:39:14.781908
369  2023-10-31 14:39:14.813849
370  2023-10-31 14:39:14.845768
371  2023-10-31 14:39:14.877648
372  2023-10-31 14:39:14.909595
373  2023-10-31 14:39:14.960426
374  2023-10-31 14:39:14.973396
375  2023-10-31 14:39:15.005334
376  2023-10-31 14:39:15.037252
377  2023-10-31 14:39:15.102049
378  2023-10-31 14:39:15.118005
379  2023-10-31 14:39:15.149959
380  2023-10-31 14:39:15.181863
381  2023-10-31 14:39:15.213807
382  2023-10-31 14:39:15.245693
383  2023-10-31 14:39:15.277578
384  2023-10-31 14:39:15.309523
385  2023-10-31 14:39:15.341414
386  2023-10-31 14:39:15.373377
387  2023-10-31 14:39:15.405266
388  2023-10-31 14:39:15.437199
389  2023-10-31 14:39:15.485028
390  2023-10-31 14:39:15.517942
391  2023-10-31 14:39:15.549886
392  2023-10-31 14:39:15.581802
393  2023-10-31 14:39:15.613684
394  2023-10-31 14:39:15.645638
395  2023-10-31 14:39:15.677538
396  2023-10-31 14:39:15.709453
397  2023-10-31 14:39:15.741339
398  2023-10-31 14:39:15.773262
399  2023-10-31 14:39:15.805195
400  2023-10-31 14:39:15.837110
401  2023-10-31 14:39:15.885003
402  2023-10-31 14:39:15.917914
403  2023-10-31 14:39:15.949819
404  2023-10-31 14:39:15.981696
405  2023-10-31 14:39:16.013611
406  2023-10-31 14:39:16.045566
407  2023-10-31 14:39:16.077441
408  2023-10-31 14:39:16.112347
409  2023-10-31 14:39:16.141269
410  2023-10-31 14:39:16.173218
411  2023-10-31 14:39:16.205137
412  2023-10-31 14:39:16.238011
413  2023-10-31 14:39:16.285890
414  2023-10-31 14:39:16.317799
415  2023-10-31 14:39:16.349751
416  2023-10-31 14:39:16.381662
417  2023-10-31 14:39:16.413541
418  2023-10-31 14:39:16.445457
419  2023-10-31 14:39:16.477375
420  2023-10-31 14:39:16.509290
421  2023-10-31 14:39:16.541200
422  2023-10-31 14:39:16.573141
423  2023-10-31 14:39:16.605093
424  2023-10-31 14:39:16.636948
425  2023-10-31 14:39:16.685847
426  2023-10-31 14:39:16.717728
427  2023-10-31 14:39:16.749650
428  2023-10-31 14:39:16.781559
429  2023-10-31 14:39:16.813473
430  2023-10-31 14:39:16.845415
431  2023-10-31 14:39:16.877334
432  2023-10-31 14:39:16.909217
433  2023-10-31 14:39:16.942129
434  2023-10-31 14:39:16.973051
435  2023-10-31 14:39:17.004986
436  2023-10-31 14:39:17.036918
437  2023-10-31 14:39:17.085798
438  2023-10-31 14:39:17.117686
439  2023-10-31 14:39:17.149620
440  2023-10-31 14:39:17.181525
441  2023-10-31 14:39:17.213443
442  2023-10-31 14:39:17.245324
443  2023-10-31 14:39:17.277232
444  2023-10-31 14:39:17.309187
445  2023-10-31 14:39:17.342059
446  2023-10-31 14:39:17.372981
447  2023-10-31 14:39:17.405920
448  2023-10-31 14:39:17.437840
449  2023-10-31 14:39:17.485676
450  2023-10-31 14:39:17.517625
451  2023-10-31 14:39:17.549509
452  2023-10-31 14:39:17.581419
453  2023-10-31 14:39:17.613340
454  2023-10-31 14:39:17.645291
455  2023-10-31 14:39:17.677167
456  2023-10-31 14:39:17.709081
457  2023-10-31 14:39:17.741041
458  2023-10-31 14:39:17.772935
459  2023-10-31 14:39:17.805846
460  2023-10-31 14:39:17.837769
461  2023-10-31 14:39:17.885635
462  2023-10-31 14:39:17.917522
463  2023-10-31 14:39:17.949468
464  2023-10-31 14:39:17.981349
465  2023-10-31 14:39:18.013265
466  2023-10-31 14:39:18.045224
467  2023-10-31 14:39:18.077124
468  2023-10-31 14:39:18.109035
469  2023-10-31 14:39:18.140971
470  2023-10-31 14:39:18.173884
471  2023-10-31 14:39:18.205776
472  2023-10-31 14:39:18.237698
473  2023-10-31 14:39:18.285565
474  2023-10-31 14:39:18.317453
475  2023-10-31 14:39:18.349393
476  2023-10-31 14:39:18.381311
477  2023-10-31 14:39:18.413224
478  2023-10-31 14:39:18.445146
479  2023-10-31 14:39:18.478024
480  2023-10-31 14:39:18.510936
481  2023-10-31 14:39:18.541854
482  2023-10-31 14:39:18.573767
483  2023-10-31 14:39:18.605715
484  2023-10-31 14:39:18.637596
485  2023-10-31 14:39:18.685504
486  2023-10-31 14:39:18.717418
487  2023-10-31 14:39:18.749325
488  2023-10-31 14:39:18.781257
489  2023-10-31 14:39:18.813161
490  2023-10-31 14:39:18.845081
491  2023-10-31 14:39:18.876989
492  2023-10-31 14:39:18.909916
493  2023-10-31 14:39:18.941847
494  2023-10-31 14:39:18.973730
495  2023-10-31 14:39:19.005647
496  2023-10-31 14:39:19.037555
497  2023-10-31 14:39:19.085449
498  2023-10-31 14:39:19.117357
499  2023-10-31 14:39:19.149262
500  2023-10-31 14:39:19.181194
501  2023-10-31 14:39:19.214055
502  2023-10-31 14:39:19.245007
503  2023-10-31 14:39:19.277884
504  2023-10-31 14:39:19.309799
505  2023-10-31 14:39:19.341714
506  2023-10-31 14:39:19.373665
507  2023-10-31 14:39:19.405580
508  2023-10-31 14:39:19.437458
509  2023-10-31 14:39:19.485359
510  2023-10-31 14:39:19.518241
511  2023-10-31 14:39:19.549196
512  2023-10-31 14:39:19.581073
513  2023-10-31 14:39:19.613987
514  2023-10-31 14:39:19.645902
515  2023-10-31 14:39:19.677850
516  2023-10-31 14:39:19.709761
517  2023-10-31 14:39:19.741644
518  2023-10-31 14:39:19.773592
519  2023-10-31 14:39:19.805516
520  2023-10-31 14:39:19.837389
521  2023-10-31 14:39:19.885286
522  2023-10-31 14:39:19.917212
523  2023-10-31 14:39:19.949115
524  2023-10-31 14:39:19.982002
525  2023-10-31 14:39:20.012957
526  2023-10-31 14:39:20.045831
527  2023-10-31 14:39:20.077746
528  2023-10-31 14:39:20.109659
529  2023-10-31 14:39:20.141607
530  2023-10-31 14:39:20.173546
531  2023-10-31 14:39:20.205446
532  2023-10-31 14:39:20.237319
533  2023-10-31 14:39:20.285223
534  2023-10-31 14:39:20.317147
535  2023-10-31 14:39:20.349020
536  2023-10-31 14:39:20.380961
537  2023-10-31 14:39:20.413887
538  2023-10-31 14:39:20.445789
539  2023-10-31 14:39:20.477717
540  2023-10-31 14:39:20.509626
541  2023-10-31 14:39:20.541540
542  2023-10-31 14:39:20.573478
543  2023-10-31 14:39:20.605338
544  2023-10-31 14:39:20.637306
545  2023-10-31 14:39:20.685160
546  2023-10-31 14:39:20.717064
547  2023-10-31 14:39:20.748951
548  2023-10-31 14:39:20.781901
549  2023-10-31 14:39:20.813816
550  2023-10-31 14:39:20.845727
551  2023-10-31 14:39:20.877608
552  2023-10-31 14:39:20.909567
553  2023-10-31 14:39:20.941475
554  2023-10-31 14:39:20.973386
555  2023-10-31 14:39:21.005266
556  2023-10-31 14:39:21.037181
557  2023-10-31 14:39:21.085089
558  2023-10-31 14:39:21.117965
559  2023-10-31 14:39:21.149880
560  2023-10-31 14:39:21.181825
561  2023-10-31 14:39:21.213709
562  2023-10-31 14:39:21.245651
563  2023-10-31 14:39:21.277567
564  2023-10-31 14:39:21.309491
565  2023-10-31 14:39:21.341392
566  2023-10-31 14:39:21.373329
567  2023-10-31 14:39:21.405197
568  2023-10-31 14:39:21.438109
569  2023-10-31 14:39:21.484983
570  2023-10-31 14:39:21.516898
571  2023-10-31 14:39:21.549845
572  2023-10-31 14:39:21.581725
573  2023-10-31 14:39:21.613672
574  2023-10-31 14:39:21.645583
575  2023-10-31 14:39:21.677498
576  2023-10-31 14:39:21.709420
577  2023-10-31 14:39:21.741301
578  2023-10-31 14:39:21.773221
579  2023-10-31 14:39:21.805127
580  2023-10-31 14:39:21.838041
581  2023-10-31 14:39:21.884950
582  2023-10-31 14:39:21.917858
583  2023-10-31 14:39:21.949772
584  2023-10-31 14:39:21.981689
585  2023-10-31 14:39:22.013571
586  2023-10-31 14:39:22.045514
587  2023-10-31 14:39:22.077436
588  2023-10-31 14:39:22.109359
589  2023-10-31 14:39:22.141230
590  2023-10-31 14:39:22.194120
591  2023-10-31 14:39:22.205062
592  2023-10-31 14:39:22.237972
593  2023-10-31 14:39:22.284845
594  2023-10-31 14:39:22.317757
595  2023-10-31 14:39:22.349697
596  2023-10-31 14:39:22.381631
597  2023-10-31 14:39:22.413546
598  2023-10-31 14:39:22.445451
599  2023-10-31 14:39:22.477359
600  2023-10-31 14:39:22.509290
601  2023-10-31 14:39:22.541203
602  2023-10-31 14:39:22.573108
603  2023-10-31 14:39:22.604989
604  2023-10-31 14:39:22.637902
605  2023-10-31 14:39:22.685834
606  2023-10-31 14:39:22.717716
607  2023-10-31 14:39:22.749603
608  2023-10-31 14:39:22.781517
609  2023-10-31 14:39:22.813435
610  2023-10-31 14:39:22.845379
611  2023-10-31 14:39:22.877260
612  2023-10-31 14:39:22.909219
613  2023-10-31 14:39:22.941090
614  2023-10-31 14:39:22.973005
615  2023-10-31 14:39:23.004920
616  2023-10-31 14:39:23.037832
617  2023-10-31 14:39:23.085742
618  2023-10-31 14:39:23.117618
619  2023-10-31 14:39:23.149569
620  2023-10-31 14:39:23.181448
621  2023-10-31 14:39:23.213394
622  2023-10-31 14:39:23.245326
623  2023-10-31 14:39:23.277237
624  2023-10-31 14:39:23.309149
625  2023-10-31 14:39:23.342023
626  2023-10-31 14:39:23.372936
627  2023-10-31 14:39:23.405848
628  2023-10-31 14:39:23.437763
629  2023-10-31 14:39:23.485683
630  2023-10-31 14:39:23.517550
631  2023-10-31 14:39:23.549465
632  2023-10-31 14:39:23.581407
633  2023-10-31 14:39:23.614338
634  2023-10-31 14:39:23.646207
635  2023-10-31 14:39:23.677170
636  2023-10-31 14:39:23.709063
637  2023-10-31 14:39:23.741951
638  2023-10-31 14:39:23.773863
639  2023-10-31 14:39:23.805779
640  2023-10-31 14:39:23.837695
641  2023-10-31 14:39:23.885594
642  2023-10-31 14:39:23.917496
643  2023-10-31 14:39:23.949427
644  2023-10-31 14:39:23.981349
645  2023-10-31 14:39:24.013223
646  2023-10-31 14:39:24.045174
647  2023-10-31 14:39:24.077079
648  2023-10-31 14:39:24.108969
649  2023-10-31 14:39:24.159833
650  2023-10-31 14:39:24.173799
651  2023-10-31 14:39:24.205708
652  2023-10-31 14:39:24.237623
653  2023-10-31 14:39:24.285528
654  2023-10-31 14:39:24.317411
655  2023-10-31 14:39:24.349325
656  2023-10-31 14:39:24.381269
657  2023-10-31 14:39:24.413155
658  2023-10-31 14:39:24.445115
659  2023-10-31 14:39:24.477981
660  2023-10-31 14:39:24.509895
661  2023-10-31 14:39:24.541810
662  2023-10-31 14:39:24.573726
663  2023-10-31 14:39:24.605644
664  2023-10-31 14:39:24.637554
665  2023-10-31 14:39:24.685464
666  2023-10-31 14:39:24.717389
667  2023-10-31 14:39:24.749256
668  2023-10-31 14:39:24.781207
669  2023-10-31 14:39:24.813116
670  2023-10-31 14:39:24.844999
671  2023-10-31 14:39:24.877911
672  2023-10-31 14:39:24.909828
673  2023-10-31 14:39:24.941743
674  2023-10-31 14:39:24.973655
675  2023-10-31 14:39:25.005570
676  2023-10-31 14:39:25.037486
677  2023-10-31 14:39:25.085386
678  2023-10-31 14:39:25.117305
679  2023-10-31 14:39:25.149226
680  2023-10-31 14:39:25.181136
681  2023-10-31 14:39:25.213054
682  2023-10-31 14:39:25.244966
683  2023-10-31 14:39:25.277883
684  2023-10-31 14:39:25.309756
685  2023-10-31 14:39:25.341711
686  2023-10-31 14:39:25.373586
687  2023-10-31 14:39:25.405501
688  2023-10-31 14:39:25.437416
689  2023-10-31 14:39:25.485287
690  2023-10-31 14:39:25.517260
691  2023-10-31 14:39:25.549155
692  2023-10-31 14:39:25.582057
693  2023-10-31 14:39:25.613944
694  2023-10-31 14:39:25.645858
695  2023-10-31 14:39:25.677774
696  2023-10-31 14:39:25.709731
697  2023-10-31 14:39:25.741642
698  2023-10-31 14:39:25.773524
699  2023-10-31 14:39:25.805431
700  2023-10-31 14:39:25.837346
701  2023-10-31 14:39:25.885247
702  2023-10-31 14:39:25.917197
703  2023-10-31 14:39:25.949080
704  2023-10-31 14:39:25.981962
705  2023-10-31 14:39:26.013874
706  2023-10-31 14:39:26.045789
707  2023-10-31 14:39:26.077704
708  2023-10-31 14:39:26.109646
709  2023-10-31 14:39:26.141576
710  2023-10-31 14:39:26.173448
711  2023-10-31 14:39:26.205397
712  2023-10-31 14:39:26.237278
713  2023-10-31 14:39:26.285190
714  2023-10-31 14:39:26.317063
715  2023-10-31 14:39:26.358953
716  2023-10-31 14:39:26.380920
717  2023-10-31 14:39:26.413865
718  2023-10-31 14:39:26.445750
719  2023-10-31 14:39:26.477655
720  2023-10-31 14:39:26.509587
721  2023-10-31 14:39:26.541494
722  2023-10-31 14:39:26.573378
723  2023-10-31 14:39:26.605295
724  2023-10-31 14:39:26.637207
725  2023-10-31 14:39:26.685149
726  2023-10-31 14:39:26.717992
727  2023-10-31 14:39:26.748938
728  2023-10-31 14:39:26.781821
729  2023-10-31 14:39:26.813736
730  2023-10-31 14:39:26.845678
731  2023-10-31 14:39:26.877600
732  2023-10-31 14:39:26.909509
733  2023-10-31 14:39:26.941423
734  2023-10-31 14:39:26.973309
735  2023-10-31 14:39:27.005223
736  2023-10-31 14:39:27.037140
737  2023-10-31 14:39:27.085015
738  2023-10-31 14:39:27.117959
739  2023-10-31 14:39:27.149881
740  2023-10-31 14:39:27.181752
741  2023-10-31 14:39:27.213666
742  2023-10-31 14:39:27.245620
743  2023-10-31 14:39:27.277544
744  2023-10-31 14:39:27.309453
745  2023-10-31 14:39:27.341363
746  2023-10-31 14:39:27.373240
747  2023-10-31 14:39:27.405183
748  2023-10-31 14:39:27.438067
749  2023-10-31 14:39:27.484980
750  2023-10-31 14:39:27.517854
751  2023-10-31 14:39:27.549768
752  2023-10-31 14:39:27.581714
753  2023-10-31 14:39:27.613602
754  2023-10-31 14:39:27.645563
755  2023-10-31 14:39:27.677475
756  2023-10-31 14:39:27.709342
757  2023-10-31 14:39:27.741262
758  2023-10-31 14:39:27.773171
759  2023-10-31 14:39:27.805085
760  2023-10-31 14:39:27.837998
761  2023-10-31 14:39:27.885869
762  2023-10-31 14:39:27.917784
763  2023-10-31 14:39:27.949734
764  2023-10-31 14:39:27.981667
765  2023-10-31 14:39:28.013571
766  2023-10-31 14:39:28.045498
767  2023-10-31 14:39:28.077393
768  2023-10-31 14:39:28.110271
769  2023-10-31 14:39:28.142187
770  2023-10-31 14:39:28.174100
771  2023-10-31 14:39:28.206015
772  2023-10-31 14:39:28.237928
773  2023-10-31 14:39:28.285802
774  2023-10-31 14:39:28.317715
775  2023-10-31 14:39:28.349630
776  2023-10-31 14:39:28.381546
777  2023-10-31 14:39:28.413497
778  2023-10-31 14:39:28.446404
779  2023-10-31 14:39:28.478288
780  2023-10-31 14:39:28.509231
781  2023-10-31 14:39:28.542118
782  2023-10-31 14:39:28.574031
783  2023-10-31 14:39:28.605946
784  2023-10-31 14:39:28.637861
785  2023-10-31 14:39:28.685732
786  2023-10-31 14:39:28.717648
787  2023-10-31 14:39:28.749596
788  2023-10-31 14:39:28.781477
789  2023-10-31 14:39:28.813421
790  2023-10-31 14:39:28.845335
791  2023-10-31 14:39:28.877219
792  2023-10-31 14:39:28.909161
793  2023-10-31 14:39:28.941050
794  2023-10-31 14:39:28.973962
795  2023-10-31 14:39:29.005878
796  2023-10-31 14:39:29.037792
797  2023-10-31 14:39:29.085692
798  2023-10-31 14:39:29.117605
799  2023-10-31 14:39:29.149494
800  2023-10-31 14:39:29.181409
801  2023-10-31 14:39:29.213328
802  2023-10-31 14:39:29.245235
803  2023-10-31 14:39:29.277190
804  2023-10-31 14:39:29.309106
805  2023-10-31 14:39:29.340979
806  2023-10-31 14:39:29.372894
807  2023-10-31 14:39:29.405808
808  2023-10-31 14:39:29.437722
809  2023-10-31 14:39:29.485593
810  2023-10-31 14:39:29.517514
811  2023-10-31 14:39:29.549424
812  2023-10-31 14:39:29.581367
813  2023-10-31 14:39:29.613253
814  2023-10-31 14:39:29.646228
815  2023-10-31 14:39:29.677082
816  2023-10-31 14:39:29.709033
817  2023-10-31 14:39:29.741909
818  2023-10-31 14:39:29.773868
819  2023-10-31 14:39:29.805772
820  2023-10-31 14:39:29.837696
821  2023-10-31 14:39:29.885526
822  2023-10-31 14:39:29.917440
823  2023-10-31 14:39:29.949394
824  2023-10-31 14:39:29.981312
825  2023-10-31 14:39:30.013186
826  2023-10-31 14:39:30.045131
827  2023-10-31 14:39:30.077044
828  2023-10-31 14:39:30.109925
829  2023-10-31 14:39:30.141842
830  2023-10-31 14:39:30.173787
831  2023-10-31 14:39:30.205697
832  2023-10-31 14:39:30.237587
833  2023-10-31 14:39:30.285456
834  2023-10-31 14:39:30.317408
835  2023-10-31 14:39:30.349285
836  2023-10-31 14:39:30.381226
837  2023-10-31 14:39:30.414139
838  2023-10-31 14:39:30.446028
839  2023-10-31 14:39:30.476981
840  2023-10-31 14:39:30.508884
841  2023-10-31 14:39:30.541772
842  2023-10-31 14:39:30.573685
843  2023-10-31 14:39:30.605627
844  2023-10-31 14:39:30.637553
845  2023-10-31 14:39:30.685418
846  2023-10-31 14:39:30.717301
847  2023-10-31 14:39:30.749215
848  2023-10-31 14:39:30.781131
849  2023-10-31 14:39:30.813046
850  2023-10-31 14:39:30.844959
851  2023-10-31 14:39:30.877882
852  2023-10-31 14:39:30.909822
853  2023-10-31 14:39:30.941701
854  2023-10-31 14:39:30.973615
855  2023-10-31 14:39:31.005530
856  2023-10-31 14:39:31.037473
857  2023-10-31 14:39:31.085377
858  2023-10-31 14:39:31.117258
859  2023-10-31 14:39:31.149146
860  2023-10-31 14:39:31.181096
861  2023-10-31 14:39:31.212976
862  2023-10-31 14:39:31.244891
863  2023-10-31 14:39:31.277839
864  2023-10-31 14:39:31.309744
865  2023-10-31 14:39:31.341633
866  2023-10-31 14:39:31.373548
867  2023-10-31 14:39:31.405461
868  2023-10-31 14:39:31.437427
869  2023-10-31 14:39:31.485293
870  2023-10-31 14:39:31.517196
871  2023-10-31 14:39:31.549156
872  2023-10-31 14:39:31.580996
873  2023-10-31 14:39:31.613903
874  2023-10-31 14:39:31.645847
875  2023-10-31 14:39:31.677769
876  2023-10-31 14:39:31.709692
877  2023-10-31 14:39:31.741614
878  2023-10-31 14:39:31.773478
879  2023-10-31 14:39:31.805437
880  2023-10-31 14:39:31.837362
881  2023-10-31 14:39:31.885184
882  2023-10-31 14:39:31.917119
883  2023-10-31 14:39:31.950007
884  2023-10-31 14:39:31.981946
885  2023-10-31 14:39:32.013873
886  2023-10-31 14:39:32.045790
887  2023-10-31 14:39:32.077695
888  2023-10-31 14:39:32.109627
889  2023-10-31 14:39:32.141523
890  2023-10-31 14:39:32.173454
891  2023-10-31 14:39:32.205360
892  2023-10-31 14:39:32.237236
893  2023-10-31 14:39:32.285109
894  2023-10-31 14:39:32.317024
895  2023-10-31 14:39:32.348995
896  2023-10-31 14:39:32.381851
897  2023-10-31 14:39:32.413765
898  2023-10-31 14:39:32.445680
899  2023-10-31 14:39:32.477631
900  2023-10-31 14:39:32.509571
901  2023-10-31 14:39:32.541453
902  2023-10-31 14:39:32.573375
903  2023-10-31 14:39:32.605310
904  2023-10-31 14:39:32.637222
905  2023-10-31 14:39:32.685077
906  2023-10-31 14:39:32.716990
907  2023-10-31 14:39:32.749867
908  2023-10-31 14:39:32.781817
909  2023-10-31 14:39:32.813697
910  2023-10-31 14:39:32.845612
911  2023-10-31 14:39:32.877565
912  2023-10-31 14:39:32.909469
913  2023-10-31 14:39:32.941381
914  2023-10-31 14:39:32.973270
915  2023-10-31 14:39:33.005192
916  2023-10-31 14:39:33.037127
917  2023-10-31 14:39:33.084997
918  2023-10-31 14:39:33.117942
919  2023-10-31 14:39:33.149839
920  2023-10-31 14:39:33.181741
921  2023-10-31 14:39:33.213655
922  2023-10-31 14:39:33.245583
923  2023-10-31 14:39:33.277494
924  2023-10-31 14:39:33.309417
925  2023-10-31 14:39:33.341324
926  2023-10-31 14:39:33.373264
927  2023-10-31 14:39:33.405152
928  2023-10-31 14:39:33.437055
929  2023-10-31 14:39:33.484902
930  2023-10-31 14:39:33.517814
931  2023-10-31 14:39:33.549763
932  2023-10-31 14:39:33.610571
933  2023-10-31 14:39:33.615553
934  2023-10-31 14:39:33.645476
935  2023-10-31 14:39:33.677422
936  2023-10-31 14:39:33.709361
937  2023-10-31 14:39:33.741243
938  2023-10-31 14:39:33.773200
939  2023-10-31 14:39:33.805089
940  2023-10-31 14:39:33.836987
941  2023-10-31 14:39:33.885871
942  2023-10-31 14:39:33.917745
943  2023-10-31 14:39:33.949691
944  2023-10-31 14:39:33.981603
945  2023-10-31 14:39:34.013552
946  2023-10-31 14:39:34.045431
947  2023-10-31 14:39:34.077344
948  2023-10-31 14:39:34.109275
949  2023-10-31 14:39:34.141186
950  2023-10-31 14:39:34.173123
951  2023-10-31 14:39:34.205027
952  2023-10-31 14:39:34.237892
953  2023-10-31 14:39:34.285760
954  2023-10-31 14:39:34.317703
955  2023-10-31 14:39:34.349632
956  2023-10-31 14:39:34.381556
957  2023-10-31 14:39:34.413419
958  2023-10-31 14:39:34.445334
959  2023-10-31 14:39:34.477250
960  2023-10-31 14:39:34.509163
961  2023-10-31 14:39:34.541078
962  2023-10-31 14:39:34.573992
963  2023-10-31 14:39:34.605908
964  2023-10-31 14:39:34.637819
965  2023-10-31 14:39:34.685695
966  2023-10-31 14:39:34.717654
967  2023-10-31 14:39:34.749559
968  2023-10-31 14:39:34.781434
969  2023-10-31 14:39:34.813381
970  2023-10-31 14:39:34.845299
971  2023-10-31 14:39:34.877183
972  2023-10-31 14:39:34.909136
973  2023-10-31 14:39:34.942045
974  2023-10-31 14:39:34.972964
975  2023-10-31 14:39:35.005876
976  2023-10-31 14:39:35.037776
977  2023-10-31 14:39:35.085622
978  2023-10-31 14:39:35.117593
979  2023-10-31 14:39:35.149452
980  2023-10-31 14:39:35.181369
981  2023-10-31 14:39:35.213322
982  2023-10-31 14:39:35.245234
983  2023-10-31 14:39:35.277148
984  2023-10-31 14:39:35.310023
985  2023-10-31 14:39:35.340981
986  2023-10-31 14:39:35.373880
987  2023-10-31 14:39:35.405817
988  2023-10-31 14:39:35.437733
989  2023-10-31 14:39:35.485588
990  2023-10-31 14:39:35.547425
991  2023-10-31 14:39:35.551381
992  2023-10-31 14:39:35.581329
993  2023-10-31 14:39:35.613266
994  2023-10-31 14:39:35.645175
995  2023-10-31 14:39:35.677040
996  2023-10-31 14:39:35.708956
997  2023-10-31 14:39:35.740908
998  2023-10-31 14:39:35.773813
999  2023-10-31 14:39:35.805735
1000  2023-10-31 14:39:35.837647
1001  2023-10-31 14:39:35.885490
1002  2023-10-31 14:39:35.917435
1003  2023-10-31 14:39:35.949314
1004  2023-10-31 14:39:35.981268
1005  2023-10-31 14:39:36.013177
1006  2023-10-31 14:39:36.045094
1007  2023-10-31 14:39:36.077008
1008  2023-10-31 14:39:36.109910
1009  2023-10-31 14:39:36.141833
1010  2023-10-31 14:39:36.173767
1011  2023-10-31 14:39:36.205628
1012  2023-10-31 14:39:36.237546
1013  2023-10-31 14:39:36.285415
1014  2023-10-31 14:39:36.317332
1015  2023-10-31 14:39:36.349244
1016  2023-10-31 14:39:36.381196
1017  2023-10-31 14:39:36.413100
1018  2023-10-31 14:39:36.445024
1019  2023-10-31 14:39:36.477898
1020  2023-10-31 14:39:36.509849
1021  2023-10-31 14:39:36.541766
1022  2023-10-31 14:39:36.573695
1023  2023-10-31 14:39:36.605558
1024  2023-10-31 14:39:36.637502
1025  2023-10-31 14:39:36.685385
1026  2023-10-31 14:39:36.717286
1027  2023-10-31 14:39:36.749175
1028  2023-10-31 14:39:36.781127
1029  2023-10-31 14:39:36.813030
1030  2023-10-31 14:39:36.845965
1031  2023-10-31 14:39:36.877868
1032  2023-10-31 14:39:36.909802
1033  2023-10-31 14:39:36.941697
1034  2023-10-31 14:39:36.973609
1035  2023-10-31 14:39:37.005526
1036  2023-10-31 14:39:37.037430
1037  2023-10-31 14:39:37.085311
1038  2023-10-31 14:39:37.117217
1039  2023-10-31 14:39:37.149158
1040  2023-10-31 14:39:37.182051
1041  2023-10-31 14:39:37.212962
1042  2023-10-31 14:39:37.245849
1043  2023-10-31 14:39:37.277768
1044  2023-10-31 14:39:37.309676
1045  2023-10-31 14:39:37.341592
1046  2023-10-31 14:39:37.373550
1047  2023-10-31 14:39:37.406457
1048  2023-10-31 14:39:37.437380
1049  2023-10-31 14:39:37.485208
1050  2023-10-31 14:39:37.517159
1051  2023-10-31 14:39:37.549064
1052  2023-10-31 14:39:37.580983
1053  2023-10-31 14:39:37.613898
1054  2023-10-31 14:39:37.645807
1055  2023-10-31 14:39:37.677732
1056  2023-10-31 14:39:37.709607
1057  2023-10-31 14:39:37.741563
1058  2023-10-31 14:39:37.773468
1059  2023-10-31 14:39:37.805391
1060  2023-10-31 14:39:37.837303
1061  2023-10-31 14:39:37.885138
1062  2023-10-31 14:39:37.917089
1063  2023-10-31 14:39:37.950005
1064  2023-10-31 14:39:37.980916
1065  2023-10-31 14:39:38.013826
1066  2023-10-31 14:39:38.045772
1067  2023-10-31 14:39:38.077671
1068  2023-10-31 14:39:38.109537
1069  2023-10-31 14:39:38.141493
1070  2023-10-31 14:39:38.173408
1071  2023-10-31 14:39:38.205285
1072  2023-10-31 14:39:38.237282
1073  2023-10-31 14:39:38.285129
1074  2023-10-31 14:39:38.317018
1075  2023-10-31 14:39:38.349896
1076  2023-10-31 14:39:38.381811
1077  2023-10-31 14:39:38.413774
1078  2023-10-31 14:39:38.445674
1079  2023-10-31 14:39:38.477582
1080  2023-10-31 14:39:38.509503
1081  2023-10-31 14:39:38.541411
1082  2023-10-31 14:39:38.573344
1083  2023-10-31 14:39:38.606244
1084  2023-10-31 14:39:38.637153
1085  2023-10-31 14:39:38.684999
1086  2023-10-31 14:39:38.716970
1087  2023-10-31 14:39:38.749856
1088  2023-10-31 14:39:38.781751
1089  2023-10-31 14:39:38.813720
1090  2023-10-31 14:39:38.845604
1091  2023-10-31 14:39:38.877483
1092  2023-10-31 14:39:38.909404
1093  2023-10-31 14:39:38.941341
1094  2023-10-31 14:39:38.973265
1095  2023-10-31 14:39:39.005178
1096  2023-10-31 14:39:39.037097
1097  2023-10-31 14:39:39.085927
1098  2023-10-31 14:39:39.117875
1099  2023-10-31 14:39:39.149756
1100  2023-10-31 14:39:39.181701
1101  2023-10-31 14:39:39.213615
1102  2023-10-31 14:39:39.245533
1103  2023-10-31 14:39:39.277458
1104  2023-10-31 14:39:39.309377
1105  2023-10-31 14:39:39.341276
1106  2023-10-31 14:39:39.373161
1107  2023-10-31 14:39:39.405073
1108  2023-10-31 14:39:39.438015
1109  2023-10-31 14:39:39.485907
1110  2023-10-31 14:39:39.517774
1111  2023-10-31 14:39:39.549730
1112  2023-10-31 14:39:39.581630
1113  2023-10-31 14:39:39.613550
1114  2023-10-31 14:39:39.645489
1115  2023-10-31 14:39:39.677376
1116  2023-10-31 14:39:39.709288
1117  2023-10-31 14:39:39.742173
1118  2023-10-31 14:39:39.774089
1119  2023-10-31 14:39:39.805059
1120  2023-10-31 14:39:39.836975
1121  2023-10-31 14:39:39.885830
1122  2023-10-31 14:39:39.917741
1123  2023-10-31 14:39:39.949619
1124  2023-10-31 14:39:39.981532
1125  2023-10-31 14:39:40.013485
1126  2023-10-31 14:39:40.045390
1127  2023-10-31 14:39:40.077318
1128  2023-10-31 14:39:40.109232
1129  2023-10-31 14:39:40.141138
1130  2023-10-31 14:39:40.174019
1131  2023-10-31 14:39:40.205966
1132  2023-10-31 14:39:40.237874
1133  2023-10-31 14:39:40.285766
1134  2023-10-31 14:39:40.317662
1135  2023-10-31 14:39:40.349587
1136  2023-10-31 14:39:40.381503
1137  2023-10-31 14:39:40.413379
1138  2023-10-31 14:39:40.445293
1139  2023-10-31 14:39:40.477245
1140  2023-10-31 14:39:40.510121
1141  2023-10-31 14:39:40.541065
1142  2023-10-31 14:39:40.572989
1143  2023-10-31 14:39:40.605864
1144  2023-10-31 14:39:40.637806
1145  2023-10-31 14:39:40.685650
1146  2023-10-31 14:39:40.717593
1147  2023-10-31 14:39:40.749481
1148  2023-10-31 14:39:40.781431
1149  2023-10-31 14:39:40.813343
1150  2023-10-31 14:39:40.845227
1151  2023-10-31 14:39:40.877164
1152  2023-10-31 14:39:40.910051
1153  2023-10-31 14:39:40.941967
1154  2023-10-31 14:39:40.973880
1155  2023-10-31 14:39:41.005795
1156  2023-10-31 14:39:41.037710
1157  2023-10-31 14:39:41.085609
1158  2023-10-31 14:39:41.117541
1159  2023-10-31 14:39:41.149445
1160  2023-10-31 14:39:41.181362
1161  2023-10-31 14:39:41.213276
1162  2023-10-31 14:39:41.245155
1163  2023-10-31 14:39:41.277115
1164  2023-10-31 14:39:41.309027
1165  2023-10-31 14:39:41.341896
1166  2023-10-31 14:39:41.373812
1167  2023-10-31 14:39:41.405755
1168  2023-10-31 14:39:41.437679
1169  2023-10-31 14:39:41.485541
1170  2023-10-31 14:39:41.517457
1171  2023-10-31 14:39:41.549392
1172  2023-10-31 14:39:41.581285
1173  2023-10-31 14:39:41.613170
1174  2023-10-31 14:39:41.645086
1175  2023-10-31 14:39:41.677000
1176  2023-10-31 14:39:41.709913
1177  2023-10-31 14:39:41.741827
1178  2023-10-31 14:39:41.773742
1179  2023-10-31 14:39:41.805656
1180  2023-10-31 14:39:41.837571
1181  2023-10-31 14:39:41.885443
1182  2023-10-31 14:39:41.917394
1183  2023-10-31 14:39:41.949302
1184  2023-10-31 14:39:41.981187
1185  2023-10-31 14:39:42.013140
1186  2023-10-31 14:39:42.045017
1187  2023-10-31 14:39:42.076959
1188  2023-10-31 14:39:42.109875
1189  2023-10-31 14:39:42.141758
1190  2023-10-31 14:39:42.173699
1191  2023-10-31 14:39:42.205588
1192  2023-10-31 14:39:42.237502
1193  2023-10-31 14:39:42.285410
1194  2023-10-31 14:39:42.317340
1195  2023-10-31 14:39:42.349238
1196  2023-10-31 14:39:42.381153
1197  2023-10-31 14:39:42.413069
1198  2023-10-31 14:39:42.444947
1199  2023-10-31 14:39:42.477860
1200  2023-10-31 14:39:42.509774
1201  2023-10-31 14:39:42.541689
1202  2023-10-31 14:39:42.573603
1203  2023-10-31 14:39:42.605518
1204  2023-10-31 14:39:42.637432
1205  2023-10-31 14:39:42.685305
1206  2023-10-31 14:39:42.717248
1207  2023-10-31 14:39:42.749181
1208  2023-10-31 14:39:42.781092
1209  2023-10-31 14:39:42.813993
1210  2023-10-31 14:39:42.845876
1211  2023-10-31 14:39:42.877790
1212  2023-10-31 14:39:42.909704
1213  2023-10-31 14:39:42.941619
1214  2023-10-31 14:39:42.973534
1215  2023-10-31 14:39:43.005449
1216  2023-10-31 14:39:43.037363
1217  2023-10-31 14:39:43.085274
1218  2023-10-31 14:39:43.117178
1219  2023-10-31 14:39:43.149114
1220  2023-10-31 14:39:43.182008
1221  2023-10-31 14:39:43.213917
1222  2023-10-31 14:39:43.245807
1223  2023-10-31 14:39:43.277749
1224  2023-10-31 14:39:43.309635
1225  2023-10-31 14:39:43.341550
1226  2023-10-31 14:39:43.373508
1227  2023-10-31 14:39:43.405422
1228  2023-10-31 14:39:43.437294
1229  2023-10-31 14:39:43.485166
1230  2023-10-31 14:39:43.517109
1231  2023-10-31 14:39:43.549037
1232  2023-10-31 14:39:43.581939
1233  2023-10-31 14:39:43.613849
1234  2023-10-31 14:39:43.645737
1235  2023-10-31 14:39:43.677651
1236  2023-10-31 14:39:43.709566
1237  2023-10-31 14:39:43.741481
1238  2023-10-31 14:39:43.773395
1239  2023-10-31 14:39:43.805311
1240  2023-10-31 14:39:43.837225
1241  2023-10-31 14:39:43.885139
1242  2023-10-31 14:39:43.918009
1243  2023-10-31 14:39:43.949977
1244  2023-10-31 14:39:43.981840
1245  2023-10-31 14:39:44.013753
1246  2023-10-31 14:39:44.045669
1247  2023-10-31 14:39:44.077582
1248  2023-10-31 14:39:44.109525
1249  2023-10-31 14:39:44.141411
1250  2023-10-31 14:39:44.173326
1251  2023-10-31 14:39:44.205268
1252  2023-10-31 14:39:44.237182
1253  2023-10-31 14:39:44.285059
1254  2023-10-31 14:39:44.316945
1255  2023-10-31 14:39:44.349892
1256  2023-10-31 14:39:44.381804
1257  2023-10-31 14:39:44.413728
1258  2023-10-31 14:39:44.445599
1259  2023-10-31 14:39:44.477513
1260  2023-10-31 14:39:44.509428
1261  2023-10-31 14:39:44.541342
1262  2023-10-31 14:39:44.573257
1263  2023-10-31 14:39:44.605172
1264  2023-10-31 14:39:44.637086
1265  2023-10-31 14:39:44.685959
1266  2023-10-31 14:39:44.717905
1267  2023-10-31 14:39:44.749785
1268  2023-10-31 14:39:44.781700
1269  2023-10-31 14:39:44.813615
1270  2023-10-31 14:39:44.845529
1271  2023-10-31 14:39:44.877445
1272  2023-10-31 14:39:44.909359
1273  2023-10-31 14:39:44.941273
1274  2023-10-31 14:39:44.973188
1275  2023-10-31 14:39:45.005102
1276  2023-10-31 14:39:45.037017
1277  2023-10-31 14:39:45.085888
1278  2023-10-31 14:39:45.117802
1279  2023-10-31 14:39:45.149718
1280  2023-10-31 14:39:45.181670
1281  2023-10-31 14:39:45.213544
1282  2023-10-31 14:39:45.245466
1283  2023-10-31 14:39:45.277374
1284  2023-10-31 14:39:45.309288
1285  2023-10-31 14:39:45.341203
1286  2023-10-31 14:39:45.373119
1287  2023-10-31 14:39:45.405033
1288  2023-10-31 14:39:45.436946
1289  2023-10-31 14:39:45.485864
1290  2023-10-31 14:39:45.517731
1291  2023-10-31 14:39:45.549647
1292  2023-10-31 14:39:45.581561
1293  2023-10-31 14:39:45.613515
1294  2023-10-31 14:39:45.645389
1295  2023-10-31 14:39:45.677304
1296  2023-10-31 14:39:45.709218
1297  2023-10-31 14:39:45.741162
1298  2023-10-31 14:39:45.773057
1299  2023-10-31 14:39:45.804966
1300  2023-10-31 14:39:45.837875
1301  2023-10-31 14:39:45.885791
1302  2023-10-31 14:39:45.917662
1303  2023-10-31 14:39:45.949581
1304  2023-10-31 14:39:45.981547
1305  2023-10-31 14:39:46.013406
1306  2023-10-31 14:39:46.045320
1307  2023-10-31 14:39:46.077235
1308  2023-10-31 14:39:46.109149
1309  2023-10-31 14:39:46.141064
1310  2023-10-31 14:39:46.172979
1311  2023-10-31 14:39:46.205891
1312  2023-10-31 14:39:46.237806
1313  2023-10-31 14:39:46.285679
1314  2023-10-31 14:39:46.317621
1315  2023-10-31 14:39:46.349536
1316  2023-10-31 14:39:46.381467
1317  2023-10-31 14:39:46.413338
1318  2023-10-31 14:39:46.445252
1319  2023-10-31 14:39:46.478163
1320  2023-10-31 14:39:46.509080
1321  2023-10-31 14:39:46.540995
1322  2023-10-31 14:39:46.573938
1323  2023-10-31 14:39:46.605823
1324  2023-10-31 14:39:46.637736
1325  2023-10-31 14:39:46.685609
1326  2023-10-31 14:39:46.717565
1327  2023-10-31 14:39:46.749474
1328  2023-10-31 14:39:46.781388
1329  2023-10-31 14:39:46.813267
1330  2023-10-31 14:39:46.845182
1331  2023-10-31 14:39:46.877096
1332  2023-10-31 14:39:46.909051
1333  2023-10-31 14:39:46.940926
1334  2023-10-31 14:39:46.973838
1335  2023-10-31 14:39:47.005753
1336  2023-10-31 14:39:47.037667
1337  2023-10-31 14:39:47.085545
1338  2023-10-31 14:39:47.117460
1339  2023-10-31 14:39:47.149410
1340  2023-10-31 14:39:47.181283
1341  2023-10-31 14:39:47.213198
1342  2023-10-31 14:39:47.245112
1343  2023-10-31 14:39:47.277028
1344  2023-10-31 14:39:47.309939
1345  2023-10-31 14:39:47.341854
1346  2023-10-31 14:39:47.373769
1347  2023-10-31 14:39:47.405683
1348  2023-10-31 14:39:47.437598
1349  2023-10-31 14:39:47.485471
1350  2023-10-31 14:39:47.517387
1351  2023-10-31 14:39:47.549347
1352  2023-10-31 14:39:47.581214
1353  2023-10-31 14:39:47.613169
1354  2023-10-31 14:39:47.645043
1355  2023-10-31 14:39:47.676960
1356  2023-10-31 14:39:47.709870
1357  2023-10-31 14:39:47.741786
1358  2023-10-31 14:39:47.773732
1359  2023-10-31 14:39:47.805614
1360  2023-10-31 14:39:47.837529
1361  2023-10-31 14:39:47.885433
1362  2023-10-31 14:39:47.917343
1363  2023-10-31 14:39:47.949235
1364  2023-10-31 14:39:47.981145
1365  2023-10-31 14:39:48.013059
1366  2023-10-31 14:39:48.045973
1367  2023-10-31 14:39:48.077889
1368  2023-10-31 14:39:48.109801
1369  2023-10-31 14:39:48.141715
1370  2023-10-31 14:39:48.173630
1371  2023-10-31 14:39:48.205545
1372  2023-10-31 14:39:48.237459
1373  2023-10-31 14:39:48.285331
1374  2023-10-31 14:39:48.317282
1375  2023-10-31 14:39:48.349189
1376  2023-10-31 14:39:48.381075
1377  2023-10-31 14:39:48.413024
1378  2023-10-31 14:39:48.445932
1379  2023-10-31 14:39:48.477817
1380  2023-10-31 14:39:48.509735
1381  2023-10-31 14:39:48.541646
1382  2023-10-31 14:39:48.573596
1383  2023-10-31 14:39:48.605478
1384  2023-10-31 14:39:48.637390
1385  2023-10-31 14:39:48.685302
1386  2023-10-31 14:39:48.717179
1387  2023-10-31 14:39:48.749123
1388  2023-10-31 14:39:48.781043
1389  2023-10-31 14:39:48.813918
1390  2023-10-31 14:39:48.845833
1391  2023-10-31 14:39:48.877748
1392  2023-10-31 14:39:48.909701
1393  2023-10-31 14:39:48.941577
1394  2023-10-31 14:39:48.973492
1395  2023-10-31 14:39:49.005406
1396  2023-10-31 14:39:49.037321
1397  2023-10-31 14:39:49.085224
1398  2023-10-31 14:39:49.117144
1399  2023-10-31 14:39:49.149069
1400  2023-10-31 14:39:49.181935
1401  2023-10-31 14:39:49.213849
1402  2023-10-31 14:39:49.245764
1403  2023-10-31 14:39:49.277679
1404  2023-10-31 14:39:49.309593
1405  2023-10-31 14:39:49.341508
1406  2023-10-31 14:39:49.373422
1407  2023-10-31 14:39:49.405337
1408  2023-10-31 14:39:49.437252
1409  2023-10-31 14:39:49.486122
1410  2023-10-31 14:39:49.518038
1411  2023-10-31 14:39:49.548980
1412  2023-10-31 14:39:49.581869
1413  2023-10-31 14:39:49.613829
1414  2023-10-31 14:39:49.645695
1415  2023-10-31 14:39:49.677609
1416  2023-10-31 14:39:49.709524
1417  2023-10-31 14:39:49.741440
1418  2023-10-31 14:39:49.773386
1419  2023-10-31 14:39:49.805268
1420  2023-10-31 14:39:49.837183
1421  2023-10-31 14:39:49.885082
1422  2023-10-31 14:39:49.917002
1423  2023-10-31 14:39:49.948939
1424  2023-10-31 14:39:49.981830
1425  2023-10-31 14:39:50.013711
1426  2023-10-31 14:39:50.045626
1427  2023-10-31 14:39:50.085519
1428  2023-10-31 14:39:50.109455
1429  2023-10-31 14:39:50.141369
1430  2023-10-31 14:39:50.173290
1431  2023-10-31 14:39:50.205199
1432  2023-10-31 14:39:50.237113
1433  2023-10-31 14:39:50.285036
1434  2023-10-31 14:39:50.317897
1435  2023-10-31 14:39:50.349812
1436  2023-10-31 14:39:50.381727
1437  2023-10-31 14:39:50.413643
1438  2023-10-31 14:39:50.445556
1439  2023-10-31 14:39:50.477471
1440  2023-10-31 14:39:50.509385
1441  2023-10-31 14:39:50.541300
1442  2023-10-31 14:39:50.573254
1443  2023-10-31 14:39:50.605163
1444  2023-10-31 14:39:50.637087
1445  2023-10-31 14:39:50.684965
1446  2023-10-31 14:39:50.717878
1447  2023-10-31 14:39:50.749770
1448  2023-10-31 14:39:50.781659
1449  2023-10-31 14:39:50.813574
1450  2023-10-31 14:39:50.845521
1451  2023-10-31 14:39:50.877447
1452  2023-10-31 14:39:50.909361
1453  2023-10-31 14:39:50.941232
1454  2023-10-31 14:39:50.973194
1455  2023-10-31 14:39:51.005109
1456  2023-10-31 14:39:51.038012
1457  2023-10-31 14:39:51.085878
1458  2023-10-31 14:39:51.117774
1459  2023-10-31 14:39:51.149714
1460  2023-10-31 14:39:51.181591
1461  2023-10-31 14:39:51.213539
1462  2023-10-31 14:39:51.245447
1463  2023-10-31 14:39:51.277374
1464  2023-10-31 14:39:51.309248
1465  2023-10-31 14:39:51.341164
1466  2023-10-31 14:39:51.373111
1467  2023-10-31 14:39:51.404996
1468  2023-10-31 14:39:51.437955
1469  2023-10-31 14:39:51.485780
1470  2023-10-31 14:39:51.517692
1471  2023-10-31 14:39:51.549656
1472  2023-10-31 14:39:51.581552
1473  2023-10-31 14:39:51.613435
1474  2023-10-31 14:39:51.645386
1475  2023-10-31 14:39:51.677327
1476  2023-10-31 14:39:51.709213
1477  2023-10-31 14:39:51.741127
1478  2023-10-31 14:39:51.773073
1479  2023-10-31 14:39:51.805964
1480  2023-10-31 14:39:51.837879
1481  2023-10-31 14:39:51.885708
1482  2023-10-31 14:39:51.917623
1483  2023-10-31 14:39:51.949579
1484  2023-10-31 14:39:51.981451
1485  2023-10-31 14:39:52.013426
1486  2023-10-31 14:39:52.045326
1487  2023-10-31 14:39:52.077222
1488  2023-10-31 14:39:52.109163
1489  2023-10-31 14:39:52.141067
1490  2023-10-31 14:39:52.172987
1491  2023-10-31 14:39:52.204892
1492  2023-10-31 14:39:52.237833
1493  2023-10-31 14:39:52.285641
1494  2023-10-31 14:39:52.317558
1495  2023-10-31 14:39:52.349508
1496  2023-10-31 14:39:52.381417
1497  2023-10-31 14:39:52.413331
1498  2023-10-31 14:39:52.445252
1499  2023-10-31 14:39:52.477167
1500  2023-10-31 14:39:52.509075
1501  2023-10-31 14:39:52.541000
1502  2023-10-31 14:39:52.573900
1503  2023-10-31 14:39:52.605843
1504  2023-10-31 14:39:52.637746
1505  2023-10-31 14:39:52.685573
1506  2023-10-31 14:39:52.717482
1507  2023-10-31 14:39:52.749402
1508  2023-10-31 14:39:52.781340
1509  2023-10-31 14:39:52.813231
1510  2023-10-31 14:39:52.845193
1511  2023-10-31 14:39:52.877057
1512  2023-10-31 14:39:52.909018
1513  2023-10-31 14:39:52.941922
1514  2023-10-31 14:39:52.973801
1515  2023-10-31 14:39:53.005747
1516  2023-10-31 14:39:53.037627
1517  2023-10-31 14:39:53.085535
1518  2023-10-31 14:39:53.117443
1519  2023-10-31 14:39:53.149377
1520  2023-10-31 14:39:53.181285
1521  2023-10-31 14:39:53.233133
1522  2023-10-31 14:39:53.245077
1523  2023-10-31 14:39:53.277985
1524  2023-10-31 14:39:53.309968
1525  2023-10-31 14:39:53.341864
1526  2023-10-31 14:39:53.373797
1527  2023-10-31 14:39:53.405654
1528  2023-10-31 14:39:53.437597
1529  2023-10-31 14:39:53.485463
1530  2023-10-31 14:39:53.517346
1531  2023-10-31 14:39:53.549260
1532  2023-10-31 14:39:53.581225
1533  2023-10-31 14:39:53.613089
1534  2023-10-31 14:39:53.645048
1535  2023-10-31 14:39:53.677962
1536  2023-10-31 14:39:53.709877
1537  2023-10-31 14:39:53.741745
1538  2023-10-31 14:39:53.773704
1539  2023-10-31 14:39:53.805608
1540  2023-10-31 14:39:53.837523
1541  2023-10-31 14:39:53.885397
1542  2023-10-31 14:39:53.917318
1543  2023-10-31 14:39:53.949217
1544  2023-10-31 14:39:53.982103
1545  2023-10-31 14:39:54.014017
1546  2023-10-31 14:39:54.044967
1547  2023-10-31 14:39:54.077847
1548  2023-10-31 14:39:54.109801
1549  2023-10-31 14:39:54.142674
1550  2023-10-31 14:39:54.173591
1551  2023-10-31 14:39:54.206540
1552  2023-10-31 14:39:54.238477
1553  2023-10-31 14:39:54.286335
1554  2023-10-31 14:39:54.318204
1555  2023-10-31 14:39:54.350159
1556  2023-10-31 14:39:54.382035
1557  2023-10-31 14:39:54.413997
1558  2023-10-31 14:39:54.445863
1559  2023-10-31 14:39:54.477778
1560  2023-10-31 14:39:54.509724
1561  2023-10-31 14:39:54.541647
1562  2023-10-31 14:39:54.573522
1563  2023-10-31 14:39:54.606486
1564  2023-10-31 14:39:54.637385
1565  2023-10-31 14:39:54.686221
1566  2023-10-31 14:39:54.718137
1567  2023-10-31 14:39:54.750108
1568  2023-10-31 14:39:54.781965
1569  2023-10-31 14:39:54.813879
1570  2023-10-31 14:39:54.845825
1571  2023-10-31 14:39:54.877754
1572  2023-10-31 14:39:54.909623
1573  2023-10-31 14:39:54.941538
1574  2023-10-31 14:39:54.973484
1575  2023-10-31 14:39:55.005368
1576  2023-10-31 14:39:55.037316
1577  2023-10-31 14:39:55.085179
1578  2023-10-31 14:39:55.118066
1579  2023-10-31 14:39:55.149980
1580  2023-10-31 14:39:55.181894
1581  2023-10-31 14:39:55.213843
1582  2023-10-31 14:39:55.245758
1583  2023-10-31 14:39:55.277681
1584  2023-10-31 14:39:55.309584
1585  2023-10-31 14:39:55.341497
1586  2023-10-31 14:39:55.373387
1587  2023-10-31 14:39:55.405334
1588  2023-10-31 14:39:55.437246
1589  2023-10-31 14:39:55.485123
1590  2023-10-31 14:39:55.517996
1591  2023-10-31 14:39:55.548949
1592  2023-10-31 14:39:55.581878
1593  2023-10-31 14:39:55.613794
1594  2023-10-31 14:39:55.645656
1595  2023-10-31 14:39:55.677570
1596  2023-10-31 14:39:55.709485
1597  2023-10-31 14:39:55.742441
1598  2023-10-31 14:39:55.773316
1599  2023-10-31 14:39:55.805276
1600  2023-10-31 14:39:55.837177
1601  2023-10-31 14:39:55.885043
1602  2023-10-31 14:39:55.916975
1603  2023-10-31 14:39:55.949842
1604  2023-10-31 14:39:55.981757
1605  2023-10-31 14:39:56.013671
1606  2023-10-31 14:39:56.046610
1607  2023-10-31 14:39:56.077562
1608  2023-10-31 14:39:56.109456
1609  2023-10-31 14:39:56.142364
1610  2023-10-31 14:39:56.174272
1611  2023-10-31 14:39:56.206185
1612  2023-10-31 14:39:56.237132
1613  2023-10-31 14:39:56.285944
1614  2023-10-31 14:39:56.317906
1615  2023-10-31 14:39:56.349821
1616  2023-10-31 14:39:56.381686
1617  2023-10-31 14:39:56.414601
1618  2023-10-31 14:39:56.445517
1619  2023-10-31 14:39:56.477474
1620  2023-10-31 14:39:56.509346
1621  2023-10-31 14:39:56.542308
1622  2023-10-31 14:39:56.574206
1623  2023-10-31 14:39:56.606089
1624  2023-10-31 14:39:56.637053
1625  2023-10-31 14:39:56.685874
1626  2023-10-31 14:39:56.717789
1627  2023-10-31 14:39:56.749739
1628  2023-10-31 14:39:56.781619
1629  2023-10-31 14:39:56.814568
1630  2023-10-31 14:39:56.845447
1631  2023-10-31 14:39:56.877362
1632  2023-10-31 14:39:56.909324
1633  2023-10-31 14:39:56.941225
1634  2023-10-31 14:39:56.974130
1635  2023-10-31 14:39:57.006053
1636  2023-10-31 14:39:57.036942
1637  2023-10-31 14:39:57.085849
1638  2023-10-31 14:39:57.117719
1639  2023-10-31 14:39:57.149635
1640  2023-10-31 14:39:57.181548
1641  2023-10-31 14:39:57.213505
1642  2023-10-31 14:39:57.245421
1643  2023-10-31 14:39:57.277330
1644  2023-10-31 14:39:57.309251
1645  2023-10-31 14:39:57.341123
1646  2023-10-31 14:39:57.374076
1647  2023-10-31 14:39:57.404951
1648  2023-10-31 14:39:57.436907
1649  2023-10-31 14:39:57.485769
1650  2023-10-31 14:39:57.517691
1651  2023-10-31 14:39:57.549597
1652  2023-10-31 14:39:57.581509
1653  2023-10-31 14:39:57.613425
1654  2023-10-31 14:39:57.645349
1655  2023-10-31 14:39:57.677224
1656  2023-10-31 14:39:57.709177
1657  2023-10-31 14:39:57.741117
1658  2023-10-31 14:39:57.774008
1659  2023-10-31 14:39:57.805880
1660  2023-10-31 14:39:57.837796
1661  2023-10-31 14:39:57.885708
1662  2023-10-31 14:39:57.917583
1663  2023-10-31 14:39:57.949496
1664  2023-10-31 14:39:57.981446
1665  2023-10-31 14:39:58.013353
1666  2023-10-31 14:39:58.045266
1667  2023-10-31 14:39:58.077196
1668  2023-10-31 14:39:58.109116
1669  2023-10-31 14:39:58.141018
1670  2023-10-31 14:39:58.173896
1671  2023-10-31 14:39:58.205867
1672  2023-10-31 14:39:58.237759
1673  2023-10-31 14:39:58.285598
1674  2023-10-31 14:39:58.317514
1675  2023-10-31 14:39:58.349467
1676  2023-10-31 14:39:58.381398
1677  2023-10-31 14:39:58.413257
1678  2023-10-31 14:39:58.445218
1679  2023-10-31 14:39:58.477123
1680  2023-10-31 14:39:58.509033
1681  2023-10-31 14:39:58.540954
1682  2023-10-31 14:39:58.573860
1683  2023-10-31 14:39:58.605743
1684  2023-10-31 14:39:58.637658
1685  2023-10-31 14:39:58.685528
1686  2023-10-31 14:39:58.717442
1687  2023-10-31 14:39:58.749396
1688  2023-10-31 14:39:58.781321
1689  2023-10-31 14:39:58.813226
1690  2023-10-31 14:39:58.845101
1691  2023-10-31 14:39:58.878049
1692  2023-10-31 14:39:58.908965
1693  2023-10-31 14:39:58.941843
1694  2023-10-31 14:39:58.973758
1695  2023-10-31 14:39:59.005702
1696  2023-10-31 14:39:59.037588
1697  2023-10-31 14:39:59.085460
1698  2023-10-31 14:39:59.117394
1699  2023-10-31 14:39:59.149337
1700  2023-10-31 14:39:59.181243
1701  2023-10-31 14:39:59.213166
1702  2023-10-31 14:39:59.245065
1703  2023-10-31 14:39:59.277946
1704  2023-10-31 14:39:59.309907
1705  2023-10-31 14:39:59.341806
1706  2023-10-31 14:39:59.373731
1707  2023-10-31 14:39:59.405603
1708  2023-10-31 14:39:59.437554
1709  2023-10-31 14:39:59.485389
1710  2023-10-31 14:39:59.517305
1711  2023-10-31 14:39:59.549253
1712  2023-10-31 14:39:59.581173
1713  2023-10-31 14:39:59.613107
1714  2023-10-31 14:39:59.644994
1715  2023-10-31 14:39:59.677875
1716  2023-10-31 14:39:59.709833
1717  2023-10-31 14:39:59.741748
1718  2023-10-31 14:39:59.773618
1719  2023-10-31 14:39:59.805564
1720  2023-10-31 14:39:59.837449
1721  2023-10-31 14:39:59.885347
1722  2023-10-31 14:39:59.917262
1723  2023-10-31 14:39:59.949185
1724  2023-10-31 14:39:59.981108
1725  2023-10-31 14:40:00.012981
1726  2023-10-31 14:40:00.045931
1727  2023-10-31 14:40:00.077844
1728  2023-10-31 14:40:00.109720
1729  2023-10-31 14:40:00.141679
1730  2023-10-31 14:40:00.173594
1731  2023-10-31 14:40:00.205513
1732  2023-10-31 14:40:00.237417
1733  2023-10-31 14:40:00.285287
1734  2023-10-31 14:40:00.317192
1735  2023-10-31 14:40:00.349138
1736  2023-10-31 14:40:00.381030
1737  2023-10-31 14:40:00.413942
1738  2023-10-31 14:40:00.445860
1739  2023-10-31 14:40:00.477772
1740  2023-10-31 14:40:00.509651
1741  2023-10-31 14:40:00.541603
1742  2023-10-31 14:40:00.573484
1743  2023-10-31 14:40:00.605425
1744  2023-10-31 14:40:00.637375
1745  2023-10-31 14:40:00.685217
1746  2023-10-31 14:40:00.717130
1747  2023-10-31 14:40:00.749054
1748  2023-10-31 14:40:00.780961
1749  2023-10-31 14:40:00.813838
1750  2023-10-31 14:40:00.845801
1751  2023-10-31 14:40:00.877668
1752  2023-10-31 14:40:00.909620
1753  2023-10-31 14:40:00.941563
1754  2023-10-31 14:40:00.973450
1755  2023-10-31 14:40:01.005373
1756  2023-10-31 14:40:01.037277
1757  2023-10-31 14:40:01.085150
1758  2023-10-31 14:40:01.117028
1759  2023-10-31 14:40:01.149982
1760  2023-10-31 14:40:01.180896
1761  2023-10-31 14:40:01.213768
1762  2023-10-31 14:40:01.245726
1763  2023-10-31 14:40:01.277598
1764  2023-10-31 14:40:01.309559
1765  2023-10-31 14:40:01.341463
1766  2023-10-31 14:40:01.373393
1767  2023-10-31 14:40:01.405262
1768  2023-10-31 14:40:01.437215
1769  2023-10-31 14:40:01.485044
1770  2023-10-31 14:40:01.517984
1771  2023-10-31 14:40:01.548911
1772  2023-10-31 14:40:01.581785
1773  2023-10-31 14:40:01.613700
1774  2023-10-31 14:40:01.645648
1775  2023-10-31 14:40:01.677531
1776  2023-10-31 14:40:01.709444
1777  2023-10-31 14:40:01.741386
1778  2023-10-31 14:40:01.773299
1779  2023-10-31 14:40:01.805256
1780  2023-10-31 14:40:01.837131
1781  2023-10-31 14:40:01.885008
1782  2023-10-31 14:40:01.917924
1783  2023-10-31 14:40:01.949849
1784  2023-10-31 14:40:01.981751
1785  2023-10-31 14:40:02.013657
1786  2023-10-31 14:40:02.045593
1787  2023-10-31 14:40:02.077486
1788  2023-10-31 14:40:02.109403
1789  2023-10-31 14:40:02.141289
1790  2023-10-31 14:40:02.173204
1791  2023-10-31 14:40:02.205144
1792  2023-10-31 14:40:02.237059
1793  2023-10-31 14:40:02.284939
1794  2023-10-31 14:40:02.317817
1795  2023-10-31 14:40:02.349772
1796  2023-10-31 14:40:02.381647
1797  2023-10-31 14:40:02.413590
1798  2023-10-31 14:40:02.445515
1799  2023-10-31 14:40:02.477433
1800  2023-10-31 14:40:02.509345
1801  2023-10-31 14:40:02.541259
1802  2023-10-31 14:40:02.573162
1803  2023-10-31 14:40:02.605082
1804  2023-10-31 14:40:02.637990
1805  2023-10-31 14:40:02.685834
1806  2023-10-31 14:40:02.717748
1807  2023-10-31 14:40:02.749662
1808  2023-10-31 14:40:02.781579
1809  2023-10-31 14:40:02.813526
1810  2023-10-31 14:40:02.845406
1811  2023-10-31 14:40:02.877355
1812  2023-10-31 14:40:02.909298
1813  2023-10-31 14:40:02.941182
1814  2023-10-31 14:40:02.973066
1815  2023-10-31 14:40:03.005006
1816  2023-10-31 14:40:03.036922
1817  2023-10-31 14:40:03.085802
1818  2023-10-31 14:40:03.117678
1819  2023-10-31 14:40:03.149593
1820  2023-10-31 14:40:03.181535
1821  2023-10-31 14:40:03.213423
1822  2023-10-31 14:40:03.245340
1823  2023-10-31 14:40:03.277278
1824  2023-10-31 14:40:03.309209
1825  2023-10-31 14:40:03.341081
1826  2023-10-31 14:40:03.373022
1827  2023-10-31 14:40:03.404958
1828  2023-10-31 14:40:03.437861
1829  2023-10-31 14:40:03.485739
1830  2023-10-31 14:40:03.517650
1831  2023-10-31 14:40:03.549525
1832  2023-10-31 14:40:03.581439
1833  2023-10-31 14:40:03.613387
1834  2023-10-31 14:40:03.645296
1835  2023-10-31 14:40:03.677209
1836  2023-10-31 14:40:03.709145
1837  2023-10-31 14:40:03.741049
1838  2023-10-31 14:40:03.773924
1839  2023-10-31 14:40:03.805839
1840  2023-10-31 14:40:03.837753
1841  2023-10-31 14:40:03.885683
1842  2023-10-31 14:40:03.917569
1843  2023-10-31 14:40:03.949455
1844  2023-10-31 14:40:03.981391
1845  2023-10-31 14:40:04.013285
1846  2023-10-31 14:40:04.045229
1847  2023-10-31 14:40:04.077151
1848  2023-10-31 14:40:04.110054
1849  2023-10-31 14:40:04.141969
1850  2023-10-31 14:40:04.173901
1851  2023-10-31 14:40:04.205797
1852  2023-10-31 14:40:04.237684
1853  2023-10-31 14:40:04.285557
1854  2023-10-31 14:40:04.317471
1855  2023-10-31 14:40:04.349426
1856  2023-10-31 14:40:04.381344
1857  2023-10-31 14:40:04.413215
1858  2023-10-31 14:40:04.445155
1859  2023-10-31 14:40:04.477096
1860  2023-10-31 14:40:04.509989
1861  2023-10-31 14:40:04.541907
1862  2023-10-31 14:40:04.573838
1863  2023-10-31 14:40:04.605729
1864  2023-10-31 14:40:04.637653
1865  2023-10-31 14:40:04.685488
1866  2023-10-31 14:40:04.717432
1867  2023-10-31 14:40:04.749364
1868  2023-10-31 14:40:04.781263
1869  2023-10-31 14:40:04.813146
1870  2023-10-31 14:40:04.845074
1871  2023-10-31 14:40:04.876976
1872  2023-10-31 14:40:04.909888
1873  2023-10-31 14:40:04.941855
1874  2023-10-31 14:40:04.973717
1875  2023-10-31 14:40:05.005658
1876  2023-10-31 14:40:05.037586
1877  2023-10-31 14:40:05.085453
1878  2023-10-31 14:40:05.117367
1879  2023-10-31 14:40:05.149274
1880  2023-10-31 14:40:05.181203
1881  2023-10-31 14:40:05.213107
1882  2023-10-31 14:40:05.245028
1883  2023-10-31 14:40:05.276951
1884  2023-10-31 14:40:05.309850
1885  2023-10-31 14:40:05.341765
1886  2023-10-31 14:40:05.373677
1887  2023-10-31 14:40:05.405607
1888  2023-10-31 14:40:05.437475
1889  2023-10-31 14:40:05.485353
1890  2023-10-31 14:40:05.517311
1891  2023-10-31 14:40:05.549207
1892  2023-10-31 14:40:05.581129
1893  2023-10-31 14:40:05.613053
1894  2023-10-31 14:40:05.645920
1895  2023-10-31 14:40:05.677865
1896  2023-10-31 14:40:05.709804
1897  2023-10-31 14:40:05.741663
1898  2023-10-31 14:40:05.773580
1899  2023-10-31 14:40:05.805523
1900  2023-10-31 14:40:05.837448
1901  2023-10-31 14:40:05.885280
1902  2023-10-31 14:40:05.917194
1903  2023-10-31 14:40:05.949138
1904  2023-10-31 14:40:05.982057
1905  2023-10-31 14:40:06.012938
1906  2023-10-31 14:40:06.045851
1907  2023-10-31 14:40:06.077810
1908  2023-10-31 14:40:06.109708
1909  2023-10-31 14:40:06.141641
1910  2023-10-31 14:40:06.173510
1911  2023-10-31 14:40:06.205455
1912  2023-10-31 14:40:06.237397
1913  2023-10-31 14:40:06.285243
1914  2023-10-31 14:40:06.317165
1915  2023-10-31 14:40:06.349076
1916  2023-10-31 14:40:06.380999
1917  2023-10-31 14:40:06.413868
1918  2023-10-31 14:40:06.445783
1919  2023-10-31 14:40:06.477697
1920  2023-10-31 14:40:06.509610
1921  2023-10-31 14:40:06.541559
1922  2023-10-31 14:40:06.573440
1923  2023-10-31 14:40:06.605355
1924  2023-10-31 14:40:06.637305
1925  2023-10-31 14:40:06.685142
1926  2023-10-31 14:40:06.717093
1927  2023-10-31 14:40:06.749994
1928  2023-10-31 14:40:06.780946
1929  2023-10-31 14:40:06.813798
1930  2023-10-31 14:40:06.845713
1931  2023-10-31 14:40:06.877671
1932  2023-10-31 14:40:06.909540
1933  2023-10-31 14:40:06.941492
1934  2023-10-31 14:40:06.973370
1935  2023-10-31 14:40:07.005327
1936  2023-10-31 14:40:07.037200
1937  2023-10-31 14:40:07.085097
1938  2023-10-31 14:40:07.117023
1939  2023-10-31 14:40:07.149924
1940  2023-10-31 14:40:07.181813
1941  2023-10-31 14:40:07.213727
1942  2023-10-31 14:40:07.245643
1943  2023-10-31 14:40:07.277556
1944  2023-10-31 14:40:07.309472
1945  2023-10-31 14:40:07.341420
1946  2023-10-31 14:40:07.373300
1947  2023-10-31 14:40:07.405215
1948  2023-10-31 14:40:07.437178
1949  2023-10-31 14:40:07.486000
1950  2023-10-31 14:40:07.517915
1951  2023-10-31 14:40:07.549874
1952  2023-10-31 14:40:07.581745
1953  2023-10-31 14:40:07.613658
1954  2023-10-31 14:40:07.645573
1955  2023-10-31 14:40:07.677487
1956  2023-10-31 14:40:07.709435
1957  2023-10-31 14:40:07.741362
1958  2023-10-31 14:40:07.773231
1959  2023-10-31 14:40:07.805145
1960  2023-10-31 14:40:07.837089
1961  2023-10-31 14:40:07.884932
1962  2023-10-31 14:40:07.917844
1963  2023-10-31 14:40:07.949787
1964  2023-10-31 14:40:07.981721
1965  2023-10-31 14:40:08.013627
1966  2023-10-31 14:40:08.045503
1967  2023-10-31 14:40:08.077457
1968  2023-10-31 14:40:08.109389
1969  2023-10-31 14:40:08.141278
1970  2023-10-31 14:40:08.173201
1971  2023-10-31 14:40:08.205138
1972  2023-10-31 14:40:08.237026
1973  2023-10-31 14:40:08.285916
1974  2023-10-31 14:40:08.317775
1975  2023-10-31 14:40:08.349690
1976  2023-10-31 14:40:08.381642
1977  2023-10-31 14:40:08.413519
1978  2023-10-31 14:40:08.445433
1979  2023-10-31 14:40:08.477348
1980  2023-10-31 14:40:08.509307
1981  2023-10-31 14:40:08.541219
1982  2023-10-31 14:40:08.574092
1983  2023-10-31 14:40:08.606005
1984  2023-10-31 14:40:08.637920
1985  2023-10-31 14:40:08.685791
1986  2023-10-31 14:40:08.717705
1987  2023-10-31 14:40:08.749621
1988  2023-10-31 14:40:08.781564
1989  2023-10-31 14:40:08.813487
1990  2023-10-31 14:40:08.845365
1991  2023-10-31 14:40:08.877279
1992  2023-10-31 14:40:08.909223
1993  2023-10-31 14:40:08.941137
1994  2023-10-31 14:40:08.974021
1995  2023-10-31 14:40:09.005935
1996  2023-10-31 14:40:09.037877
1997  2023-10-31 14:40:09.085722
1998  2023-10-31 14:40:09.117666
1999  2023-10-31 14:40:09.149551
2000  2023-10-31 14:40:09.181466
2001  2023-10-31 14:40:09.213381
2002  2023-10-31 14:40:09.245295
2003  2023-10-31 14:40:09.277210
2004  2023-10-31 14:40:09.309125
2005  2023-10-31 14:40:09.341039
2006  2023-10-31 14:40:09.373001
2007  2023-10-31 14:40:09.405867
2008  2023-10-31 14:40:09.437817
2009  2023-10-31 14:40:09.485653
2010  2023-10-31 14:40:09.517568
2011  2023-10-31 14:40:09.549482
2012  2023-10-31 14:40:09.581397
2013  2023-10-31 14:40:09.613311
2014  2023-10-31 14:40:09.645226
2015  2023-10-31 14:40:09.677140
2016  2023-10-31 14:40:09.710053
2017  2023-10-31 14:40:09.740970
2018  2023-10-31 14:40:09.773883
2019  2023-10-31 14:40:09.805797
2020  2023-10-31 14:40:09.837753
2021  2023-10-31 14:40:09.885584
2022  2023-10-31 14:40:09.917498
2023  2023-10-31 14:40:09.949414
2024  2023-10-31 14:40:09.981357
2025  2023-10-31 14:40:10.013242
2026  2023-10-31 14:40:10.045157
2027  2023-10-31 14:40:10.077105
2028  2023-10-31 14:40:10.110027
2029  2023-10-31 14:40:10.141898
2030  2023-10-31 14:40:10.173813
2031  2023-10-31 14:40:10.205730
2032  2023-10-31 14:40:10.237679
2033  2023-10-31 14:40:10.285514
2034  2023-10-31 14:40:10.317434
2035  2023-10-31 14:40:10.349344
2036  2023-10-31 14:40:10.381262
2037  2023-10-31 14:40:10.413234
2038  2023-10-31 14:40:10.446085
2039  2023-10-31 14:40:10.477002
2040  2023-10-31 14:40:10.509914
2041  2023-10-31 14:40:10.541829
2042  2023-10-31 14:40:10.573744
2043  2023-10-31 14:40:10.605693
2044  2023-10-31 14:40:10.637625
2045  2023-10-31 14:40:10.685445
2046  2023-10-31 14:40:10.717359
2047  2023-10-31 14:40:10.750302
2048  2023-10-31 14:40:10.781198
2049  2023-10-31 14:40:10.814101
2050  2023-10-31 14:40:10.845018
2051  2023-10-31 14:40:10.876933
2052  2023-10-31 14:40:10.909846
2053  2023-10-31 14:40:10.941790
2054  2023-10-31 14:40:10.973674
2055  2023-10-31 14:40:11.005619
2056  2023-10-31 14:40:11.037533
2057  2023-10-31 14:40:11.085376
2058  2023-10-31 14:40:11.117297
2059  2023-10-31 14:40:11.149206
2060  2023-10-31 14:40:11.181119
2061  2023-10-31 14:40:11.213034
2062  2023-10-31 14:40:11.244991
2063  2023-10-31 14:40:11.277897
2064  2023-10-31 14:40:11.309777
2065  2023-10-31 14:40:11.341690
2066  2023-10-31 14:40:11.373605
2067  2023-10-31 14:40:11.405520
2068  2023-10-31 14:40:11.437467
2069  2023-10-31 14:40:11.485307
2070  2023-10-31 14:40:11.517221
2071  2023-10-31 14:40:11.549136
2072  2023-10-31 14:40:11.581050
2073  2023-10-31 14:40:11.613962
2074  2023-10-31 14:40:11.645877
2075  2023-10-31 14:40:11.677792
2076  2023-10-31 14:40:11.709707
2077  2023-10-31 14:40:11.741621
2078  2023-10-31 14:40:11.773536
2079  2023-10-31 14:40:11.805511
2080  2023-10-31 14:40:11.837399
2081  2023-10-31 14:40:11.885273
2082  2023-10-31 14:40:11.917152
2083  2023-10-31 14:40:11.950064
2084  2023-10-31 14:40:11.981979
2085  2023-10-31 14:40:12.013893
2086  2023-10-31 14:40:12.045808
2087  2023-10-31 14:40:12.077722
2088  2023-10-31 14:40:12.109638
2089  2023-10-31 14:40:12.141552
2090  2023-10-31 14:40:12.173466
2091  2023-10-31 14:40:12.205420
2092  2023-10-31 14:40:12.237335
2093  2023-10-31 14:40:12.285168
2094  2023-10-31 14:40:12.318082
2095  2023-10-31 14:40:12.351028
2096  2023-10-31 14:40:12.381912
2097  2023-10-31 14:40:12.413824
2098  2023-10-31 14:40:12.445741
2099  2023-10-31 14:40:12.477653
2100  2023-10-31 14:40:12.509568
2101  2023-10-31 14:40:12.541483
2102  2023-10-31 14:40:12.573459
2103  2023-10-31 14:40:12.605347
2104  2023-10-31 14:40:12.637257
2105  2023-10-31 14:40:12.685145
2106  2023-10-31 14:40:12.717080
2107  2023-10-31 14:40:12.748963
2108  2023-10-31 14:40:12.781845
2109  2023-10-31 14:40:12.813799
2110  2023-10-31 14:40:12.845719
2111  2023-10-31 14:40:12.877620
2112  2023-10-31 14:40:12.909544
2113  2023-10-31 14:40:12.941461
2114  2023-10-31 14:40:12.973329
2115  2023-10-31 14:40:13.005253
2116  2023-10-31 14:40:13.037163
2117  2023-10-31 14:40:13.085073
2118  2023-10-31 14:40:13.116978
2119  2023-10-31 14:40:13.149858
2120  2023-10-31 14:40:13.181839
2121  2023-10-31 14:40:13.213722
2122  2023-10-31 14:40:13.245645
2123  2023-10-31 14:40:13.277593
2124  2023-10-31 14:40:13.309469
2125  2023-10-31 14:40:13.341424
2126  2023-10-31 14:40:13.373295
2127  2023-10-31 14:40:13.405213
2128  2023-10-31 14:40:13.437119
2129  2023-10-31 14:40:13.485960
2130  2023-10-31 14:40:13.517873
2131  2023-10-31 14:40:13.549797
2132  2023-10-31 14:40:13.581704
2133  2023-10-31 14:40:13.613658
2134  2023-10-31 14:40:13.645571
2135  2023-10-31 14:40:13.677487
2136  2023-10-31 14:40:13.709423
2137  2023-10-31 14:40:13.741343
2138  2023-10-31 14:40:13.773226
2139  2023-10-31 14:40:13.806109
2140  2023-10-31 14:40:13.837071
2141  2023-10-31 14:40:13.869933
2142  2023-10-31 14:40:13.917809
2143  2023-10-31 14:40:13.949749
2144  2023-10-31 14:40:13.981685
2145  2023-10-31 14:40:14.013583
2146  2023-10-31 14:40:14.045522
2147  2023-10-31 14:40:14.077426
2148  2023-10-31 14:40:14.109329
2149  2023-10-31 14:40:14.141207
2150  2023-10-31 14:40:14.173159
2151  2023-10-31 14:40:14.205040
2152  2023-10-31 14:40:14.236979
2153  2023-10-31 14:40:14.269863
2154  2023-10-31 14:40:14.317774
2155  2023-10-31 14:40:14.349650
2156  2023-10-31 14:40:14.381605
2157  2023-10-31 14:40:14.413515
2158  2023-10-31 14:40:14.445432
2159  2023-10-31 14:40:14.477365
2160  2023-10-31 14:40:14.509266
2161  2023-10-31 14:40:14.541170
2162  2023-10-31 14:40:14.573086
2163  2023-10-31 14:40:14.605964
2164  2023-10-31 14:40:14.637905
2165  2023-10-31 14:40:14.669793
2166  2023-10-31 14:40:14.717700
2167  2023-10-31 14:40:14.749625
2168  2023-10-31 14:40:14.781495
2169  2023-10-31 14:40:14.813421
2170  2023-10-31 14:40:14.845376
2171  2023-10-31 14:40:14.877243
2172  2023-10-31 14:40:14.909157
2173  2023-10-31 14:40:14.941072
2174  2023-10-31 14:40:14.973016
2175  2023-10-31 14:40:15.005900
2176  2023-10-31 14:40:15.037877
2177  2023-10-31 14:40:15.069730
2178  2023-10-31 14:40:15.117624
2179  2023-10-31 14:40:15.149510
2180  2023-10-31 14:40:15.181459
2181  2023-10-31 14:40:15.213376
2182  2023-10-31 14:40:15.245285
2183  2023-10-31 14:40:15.277205
2184  2023-10-31 14:40:15.309127
2185  2023-10-31 14:40:15.341035
2186  2023-10-31 14:40:15.372941
2187  2023-10-31 14:40:15.405862
2188  2023-10-31 14:40:15.437771
2189  2023-10-31 14:40:15.469691
2190  2023-10-31 14:40:15.517572
2191  2023-10-31 14:40:15.549485
2192  2023-10-31 14:40:15.581410
2193  2023-10-31 14:40:15.613275
2194  2023-10-31 14:40:15.645213
2195  2023-10-31 14:40:15.677134
2196  2023-10-31 14:40:15.709048
2197  2023-10-31 14:40:15.741960
2198  2023-10-31 14:40:15.773873
2199  2023-10-31 14:40:15.805756
2200  2023-10-31 14:40:15.837708
2201  2023-10-31 14:40:15.869586
2202  2023-10-31 14:40:15.917508
2203  2023-10-31 14:40:15.949374
2204  2023-10-31 14:40:15.981316
2205  2023-10-31 14:40:16.013236
2206  2023-10-31 14:40:16.045155
2207  2023-10-31 14:40:16.077035
2208  2023-10-31 14:40:16.108979
2209  2023-10-31 14:40:16.141914
2210  2023-10-31 14:40:16.173812
2211  2023-10-31 14:40:16.205727
2212  2023-10-31 14:40:16.237629
2213  2023-10-31 14:40:16.269542
2214  2023-10-31 14:40:16.317420
2215  2023-10-31 14:40:16.349339
2216  2023-10-31 14:40:16.381256
2217  2023-10-31 14:40:16.413167
2218  2023-10-31 14:40:16.445075
2219  2023-10-31 14:40:16.476997
2220  2023-10-31 14:40:16.509929
2221  2023-10-31 14:40:16.541827
2222  2023-10-31 14:40:16.573747
2223  2023-10-31 14:40:16.605654
2224  2023-10-31 14:40:16.637578
2225  2023-10-31 14:40:16.669474
2226  2023-10-31 14:40:16.717352
2227  2023-10-31 14:40:16.749273
2228  2023-10-31 14:40:16.781149
2229  2023-10-31 14:40:16.813112
2230  2023-10-31 14:40:16.845017
2231  2023-10-31 14:40:16.877927
2232  2023-10-31 14:40:16.909834
2233  2023-10-31 14:40:16.941724
2234  2023-10-31 14:40:16.973690
2235  2023-10-31 14:40:17.005588
2236  2023-10-31 14:40:17.037469
2237  2023-10-31 14:40:17.069382
2238  2023-10-31 14:40:17.117317
2239  2023-10-31 14:40:17.149214
2240  2023-10-31 14:40:17.181149
2241  2023-10-31 14:40:17.213050
2242  2023-10-31 14:40:17.245907
2243  2023-10-31 14:40:17.277847
2244  2023-10-31 14:40:17.309771
2245  2023-10-31 14:40:17.341650
2246  2023-10-31 14:40:17.373604
2247  2023-10-31 14:40:17.405508
2248  2023-10-31 14:40:17.437428
2249  2023-10-31 14:40:17.469355
2250  2023-10-31 14:40:17.517233
2251  2023-10-31 14:40:17.549136
2252  2023-10-31 14:40:17.581056
2253  2023-10-31 14:40:17.612958
2254  2023-10-31 14:40:17.645881
2255  2023-10-31 14:40:17.677796
2256  2023-10-31 14:40:17.709699
2257  2023-10-31 14:40:17.741628
2258  2023-10-31 14:40:17.773531
2259  2023-10-31 14:40:17.805411
2260  2023-10-31 14:40:17.837354
2261  2023-10-31 14:40:17.869266
2262  2023-10-31 14:40:17.917146
2263  2023-10-31 14:40:17.950027
2264  2023-10-31 14:40:17.980947
2265  2023-10-31 14:40:18.013896
2266  2023-10-31 14:40:18.045803
2267  2023-10-31 14:40:18.077686
2268  2023-10-31 14:40:18.109636
2269  2023-10-31 14:40:18.141550
2270  2023-10-31 14:40:18.173458
2271  2023-10-31 14:40:18.205369
2272  2023-10-31 14:40:18.237260
2273  2023-10-31 14:40:18.269207
2274  2023-10-31 14:40:18.317071
2275  2023-10-31 14:40:18.348992
2276  2023-10-31 14:40:18.381909
2277  2023-10-31 14:40:18.413785
2278  2023-10-31 14:40:18.445704
2279  2023-10-31 14:40:18.477656
2280  2023-10-31 14:40:18.509572
2281  2023-10-31 14:40:18.574355
2282  2023-10-31 14:40:18.605274
2283  2023-10-31 14:40:18.637188
2284  2023-10-31 14:40:18.669102
2285  2023-10-31 14:40:18.716973
2286  2023-10-31 14:40:18.748915
2287  2023-10-31 14:40:18.781833
2288  2023-10-31 14:40:18.813743
2289  2023-10-31 14:40:18.845687
2290  2023-10-31 14:40:18.877572
2291  2023-10-31 14:40:18.909493
2292  2023-10-31 14:40:18.941410
2293  2023-10-31 14:40:18.973315
2294  2023-10-31 14:40:19.005203
2295  2023-10-31 14:40:19.037148
2296  2023-10-31 14:40:19.070031
2297  2023-10-31 14:40:19.117933
2298  2023-10-31 14:40:19.149876
2299  2023-10-31 14:40:19.181730
2300  2023-10-31 14:40:19.213687
2301  2023-10-31 14:40:19.245561
2302  2023-10-31 14:40:19.277476
2303  2023-10-31 14:40:19.309456
2304  2023-10-31 14:40:19.341333
2305  2023-10-31 14:40:19.373250
2306  2023-10-31 14:40:19.405140
2307  2023-10-31 14:40:19.437078
2308  2023-10-31 14:40:19.469012
2309  2023-10-31 14:40:19.517887
2310  2023-10-31 14:40:19.549803
2311  2023-10-31 14:40:19.581698
2312  2023-10-31 14:40:19.613577
2313  2023-10-31 14:40:19.645492
2314  2023-10-31 14:40:19.677457
2315  2023-10-31 14:40:19.709363
2316  2023-10-31 14:40:19.741241
2317  2023-10-31 14:40:19.773177
2318  2023-10-31 14:40:19.805092
2319  2023-10-31 14:40:19.837023
2320  2023-10-31 14:40:19.869903
2321  2023-10-31 14:40:19.917800
2322  2023-10-31 14:40:19.949724
2323  2023-10-31 14:40:19.981635
2324  2023-10-31 14:40:20.014550
2325  2023-10-31 14:40:20.081326
2326  2023-10-31 14:40:20.110275
2327  2023-10-31 14:40:20.142163
2328  2023-10-31 14:40:20.174115
2329  2023-10-31 14:40:20.207017
2330  2023-10-31 14:40:20.237908
2331  2023-10-31 14:40:20.270853
2332  2023-10-31 14:40:20.317694
2333  2023-10-31 14:40:20.350635
2334  2023-10-31 14:40:20.382549
2335  2023-10-31 14:40:20.414496
2336  2023-10-31 14:40:20.446351
2337  2023-10-31 14:40:20.478305
2338  2023-10-31 14:40:20.510211
2339  2023-10-31 14:40:20.543092
2340  2023-10-31 14:40:20.574009
2341  2023-10-31 14:40:20.606922
2342  2023-10-31 14:40:20.638840
2343  2023-10-31 14:40:20.670785
2344  2023-10-31 14:40:20.718651
2345  2023-10-31 14:40:20.750570
2346  2023-10-31 14:40:20.782456
2347  2023-10-31 14:40:20.814403
2348  2023-10-31 14:40:20.846282
2349  2023-10-31 14:40:20.878224
2350  2023-10-31 14:40:20.910143
2351  2023-10-31 14:40:20.942025
2352  2023-10-31 14:40:20.973941
2353  2023-10-31 14:40:21.005891
2354  2023-10-31 14:40:21.037796
2355  2023-10-31 14:40:21.070719
2356  2023-10-31 14:40:21.118602
2357  2023-10-31 14:40:21.150507
2358  2023-10-31 14:40:21.182383
2359  2023-10-31 14:40:21.214350
2360  2023-10-31 14:40:21.246278
2361  2023-10-31 14:40:21.278162
2362  2023-10-31 14:40:21.310071
2363  2023-10-31 14:40:21.342027
2364  2023-10-31 14:40:21.373978
2365  2023-10-31 14:40:21.405888
2366  2023-10-31 14:40:21.437814
2367  2023-10-31 14:40:21.469719
2368  2023-10-31 14:40:21.517588
2369  2023-10-31 14:40:21.549502
2370  2023-10-31 14:40:21.581436
2371  2023-10-31 14:40:21.613327
2372  2023-10-31 14:40:21.646213
2373  2023-10-31 14:40:21.677130
2374  2023-10-31 14:40:21.710043
2375  2023-10-31 14:40:21.741962
2376  2023-10-31 14:40:21.773913
2377  2023-10-31 14:40:21.805814
2378  2023-10-31 14:40:21.837730
2379  2023-10-31 14:40:21.869645
2380  2023-10-31 14:40:21.917518
2381  2023-10-31 14:40:21.949443
2382  2023-10-31 14:40:21.981350
2383  2023-10-31 14:40:22.013265
2384  2023-10-31 14:40:22.046178
2385  2023-10-31 14:40:22.077064
2386  2023-10-31 14:40:22.109975
2387  2023-10-31 14:40:22.141926
2388  2023-10-31 14:40:22.173829
2389  2023-10-31 14:40:22.205761
2390  2023-10-31 14:40:22.237648
2391  2023-10-31 14:40:22.269585
2392  2023-10-31 14:40:22.317458
2393  2023-10-31 14:40:22.349365
2394  2023-10-31 14:40:22.381275
2395  2023-10-31 14:40:22.413196
2396  2023-10-31 14:40:22.445110
2397  2023-10-31 14:40:22.477025
2398  2023-10-31 14:40:22.509905
2399  2023-10-31 14:40:22.541835
2400  2023-10-31 14:40:22.573762
2401  2023-10-31 14:40:22.605693
2402  2023-10-31 14:40:22.637594
2403  2023-10-31 14:40:22.669506
2404  2023-10-31 14:40:22.717377
2405  2023-10-31 14:40:22.749299
2406  2023-10-31 14:40:22.781180
2407  2023-10-31 14:40:22.814120
2408  2023-10-31 14:40:22.847030
2409  2023-10-31 14:40:22.876950
2410  2023-10-31 14:40:22.909843
2411  2023-10-31 14:40:22.942791
2412  2023-10-31 14:40:22.974695
2413  2023-10-31 14:40:23.006616
2414  2023-10-31 14:40:23.037534
2415  2023-10-31 14:40:23.069459
2416  2023-10-31 14:40:23.117319
2417  2023-10-31 14:40:23.149249
2418  2023-10-31 14:40:23.183104
2419  2023-10-31 14:40:23.214049
2420  2023-10-31 14:40:23.246968
2421  2023-10-31 14:40:23.277856
2422  2023-10-31 14:40:23.309804
2423  2023-10-31 14:40:23.342704
2424  2023-10-31 14:40:23.374629
2425  2023-10-31 14:40:23.406546
2426  2023-10-31 14:40:23.437425
2427  2023-10-31 14:40:23.469371
2428  2023-10-31 14:40:23.517211
2429  2023-10-31 14:40:23.549125
2430  2023-10-31 14:40:23.582066
2431  2023-10-31 14:40:23.613997
2432  2023-10-31 14:40:23.645894
2433  2023-10-31 14:40:23.677810
2434  2023-10-31 14:40:23.709726
2435  2023-10-31 14:40:23.742644
2436  2023-10-31 14:40:23.773552
2437  2023-10-31 14:40:23.806492
2438  2023-10-31 14:40:23.837390
2439  2023-10-31 14:40:23.869305
2440  2023-10-31 14:40:23.917142
2441  2023-10-31 14:40:23.949059
2442  2023-10-31 14:40:23.981968
2443  2023-10-31 14:40:24.013917
2444  2023-10-31 14:40:24.045849
2445  2023-10-31 14:40:24.077749
2446  2023-10-31 14:40:24.109658
2447  2023-10-31 14:40:24.141576
2448  2023-10-31 14:40:24.173485
2449  2023-10-31 14:40:24.205429
2450  2023-10-31 14:40:24.238313
2451  2023-10-31 14:40:24.269228
2452  2023-10-31 14:40:24.318119
2453  2023-10-31 14:40:24.349024
2454  2023-10-31 14:40:24.381899
2455  2023-10-31 14:40:24.413815
2456  2023-10-31 14:40:24.445757
2457  2023-10-31 14:40:24.477680
2458  2023-10-31 14:40:24.509587
2459  2023-10-31 14:40:24.541504
2460  2023-10-31 14:40:24.573392
2461  2023-10-31 14:40:24.605359
2462  2023-10-31 14:40:24.637244
2463  2023-10-31 14:40:24.669161
2464  2023-10-31 14:40:24.718036
2465  2023-10-31 14:40:24.748957
2466  2023-10-31 14:40:24.781869
2467  2023-10-31 14:40:24.813782
2468  2023-10-31 14:40:24.845694
2469  2023-10-31 14:40:24.877608
2470  2023-10-31 14:40:24.909522
2471  2023-10-31 14:40:24.941440
2472  2023-10-31 14:40:24.973320
2473  2023-10-31 14:40:25.005238
2474  2023-10-31 14:40:25.037148
2475  2023-10-31 14:40:25.069063
2476  2023-10-31 14:40:25.117932
2477  2023-10-31 14:40:25.149896
2478  2023-10-31 14:40:25.181798
2479  2023-10-31 14:40:25.213713
2480  2023-10-31 14:40:25.262545
2481  2023-10-31 14:40:25.277510
2482  2023-10-31 14:40:25.309446
2483  2023-10-31 14:40:25.341373
2484  2023-10-31 14:40:25.373253
2485  2023-10-31 14:40:25.405203
2486  2023-10-31 14:40:25.437116
2487  2023-10-31 14:40:25.469992
2488  2023-10-31 14:40:25.517895
2489  2023-10-31 14:40:25.549778
2490  2023-10-31 14:40:25.581735
2491  2023-10-31 14:40:25.613647
2492  2023-10-31 14:40:25.645560
2493  2023-10-31 14:40:25.677472
2494  2023-10-31 14:40:25.709378
2495  2023-10-31 14:40:25.741265
2496  2023-10-31 14:40:25.774178
2497  2023-10-31 14:40:25.805124
2498  2023-10-31 14:40:25.838007
2499  2023-10-31 14:40:25.868950
2500  2023-10-31 14:40:25.917796
2501  2023-10-31 14:40:25.949741
2502  2023-10-31 14:40:25.981623
2503  2023-10-31 14:40:26.013537
2504  2023-10-31 14:40:26.045478
2505  2023-10-31 14:40:26.077397
2506  2023-10-31 14:40:26.109327
2507  2023-10-31 14:40:26.141240
2508  2023-10-31 14:40:26.173167
2509  2023-10-31 14:40:26.205031
2510  2023-10-31 14:40:26.237943
2511  2023-10-31 14:40:26.269886
2512  2023-10-31 14:40:26.317726
2513  2023-10-31 14:40:26.358615
2514  2023-10-31 14:40:26.381555
2515  2023-10-31 14:40:26.413494
2516  2023-10-31 14:40:26.445419
2517  2023-10-31 14:40:26.477297
2518  2023-10-31 14:40:26.509250
2519  2023-10-31 14:40:26.541154
2520  2023-10-31 14:40:26.574039
2521  2023-10-31 14:40:26.605987
2522  2023-10-31 14:40:26.637906
2523  2023-10-31 14:40:26.669812
2524  2023-10-31 14:40:26.717692
2525  2023-10-31 14:40:26.749599
2526  2023-10-31 14:40:26.781485
2527  2023-10-31 14:40:26.813437
2528  2023-10-31 14:40:26.845370
2529  2023-10-31 14:40:26.877234
2530  2023-10-31 14:40:26.909177
2531  2023-10-31 14:40:26.941084
2532  2023-10-31 14:40:26.972999
2533  2023-10-31 14:40:27.004887
2534  2023-10-31 14:40:27.037871
2535  2023-10-31 14:40:27.069741
2536  2023-10-31 14:40:27.117586
2537  2023-10-31 14:40:27.149533
2538  2023-10-31 14:40:27.181441
2539  2023-10-31 14:40:27.213358
2540  2023-10-31 14:40:27.245249
2541  2023-10-31 14:40:27.278156
2542  2023-10-31 14:40:27.310105
2543  2023-10-31 14:40:27.341015
2544  2023-10-31 14:40:27.373902
2545  2023-10-31 14:40:27.405883
2546  2023-10-31 14:40:27.437776
2547  2023-10-31 14:40:27.469672
2548  2023-10-31 14:40:27.517562
2549  2023-10-31 14:40:27.549458
2550  2023-10-31 14:40:27.581347
2551  2023-10-31 14:40:27.613260
2552  2023-10-31 14:40:27.645206
2553  2023-10-31 14:40:27.677138
2554  2023-10-31 14:40:27.709057
2555  2023-10-31 14:40:27.741918
2556  2023-10-31 14:40:27.773867
2557  2023-10-31 14:40:27.805783
2558  2023-10-31 14:40:27.837712
2559  2023-10-31 14:40:27.869576
2560  2023-10-31 14:40:27.917481
2561  2023-10-31 14:40:27.949407
2562  2023-10-31 14:40:27.981318
2563  2023-10-31 14:40:28.013234
2564  2023-10-31 14:40:28.045146
2565  2023-10-31 14:40:28.077049
2566  2023-10-31 14:40:28.108935
2567  2023-10-31 14:40:28.141893
2568  2023-10-31 14:40:28.173761
2569  2023-10-31 14:40:28.205680
2570  2023-10-31 14:40:28.237596
2571  2023-10-31 14:40:28.269510
2572  2023-10-31 14:40:28.317419
2573  2023-10-31 14:40:28.349350
2574  2023-10-31 14:40:28.381236
2575  2023-10-31 14:40:28.413150
2576  2023-10-31 14:40:28.445080
2577  2023-10-31 14:40:28.477949
2578  2023-10-31 14:40:28.522855
2579  2023-10-31 14:40:28.541812
2580  2023-10-31 14:40:28.573735
2581  2023-10-31 14:40:28.605636
2582  2023-10-31 14:40:28.637551
2583  2023-10-31 14:40:28.669465
2584  2023-10-31 14:40:28.717318
2585  2023-10-31 14:40:28.749230
2586  2023-10-31 14:40:28.782136
2587  2023-10-31 14:40:28.813089
2588  2023-10-31 14:40:28.844994
2589  2023-10-31 14:40:28.877920
2590  2023-10-31 14:40:28.909796
2591  2023-10-31 14:40:28.941710
2592  2023-10-31 14:40:28.973684
2593  2023-10-31 14:40:29.005566
2594  2023-10-31 14:40:29.037483
2595  2023-10-31 14:40:29.069368
2596  2023-10-31 14:40:29.118239
2597  2023-10-31 14:40:29.149159
2598  2023-10-31 14:40:29.181101
2599  2023-10-31 14:40:29.213012
2600  2023-10-31 14:40:29.244931
2601  2023-10-31 14:40:29.277838
2602  2023-10-31 14:40:29.309729
2603  2023-10-31 14:40:29.341690
2604  2023-10-31 14:40:29.373593
2605  2023-10-31 14:40:29.405508
2606  2023-10-31 14:40:29.437427
2607  2023-10-31 14:40:29.469338
2608  2023-10-31 14:40:29.517207
2609  2023-10-31 14:40:29.549113
2610  2023-10-31 14:40:29.581998
2611  2023-10-31 14:40:29.613916
2612  2023-10-31 14:40:29.645878
2613  2023-10-31 14:40:29.677745
2614  2023-10-31 14:40:29.709660
2615  2023-10-31 14:40:29.741614
2616  2023-10-31 14:40:29.773489
2617  2023-10-31 14:40:29.805428
2618  2023-10-31 14:40:29.837346
2619  2023-10-31 14:40:29.869267
2620  2023-10-31 14:40:29.917128
2621  2023-10-31 14:40:29.949017
2622  2023-10-31 14:40:29.981954
2623  2023-10-31 14:40:30.013872
2624  2023-10-31 14:40:30.045785
2625  2023-10-31 14:40:30.077702
2626  2023-10-31 14:40:30.109616
2627  2023-10-31 14:40:30.141540
2628  2023-10-31 14:40:30.173478
2629  2023-10-31 14:40:30.205363
2630  2023-10-31 14:40:30.237273
2631  2023-10-31 14:40:30.269196
2632  2023-10-31 14:40:30.317063
2633  2023-10-31 14:40:30.348974
2634  2023-10-31 14:40:30.381885
2635  2023-10-31 14:40:30.413805
2636  2023-10-31 14:40:30.445729
2637  2023-10-31 14:40:30.477603
2638  2023-10-31 14:40:30.509554
2639  2023-10-31 14:40:30.541465
2640  2023-10-31 14:40:30.573374
2641  2023-10-31 14:40:30.605295
2642  2023-10-31 14:40:30.638203
2643  2023-10-31 14:40:30.669141
2644  2023-10-31 14:40:30.717960
2645  2023-10-31 14:40:30.749903
2646  2023-10-31 14:40:30.781823
2647  2023-10-31 14:40:30.813733
2648  2023-10-31 14:40:30.845659
2649  2023-10-31 14:40:30.877580
2650  2023-10-31 14:40:30.909450
2651  2023-10-31 14:40:30.941364
2652  2023-10-31 14:40:30.973304
2653  2023-10-31 14:40:31.005249
2654  2023-10-31 14:40:31.037140
2655  2023-10-31 14:40:31.069024
2656  2023-10-31 14:40:31.117890
2657  2023-10-31 14:40:31.149805
2658  2023-10-31 14:40:31.181747
2659  2023-10-31 14:40:31.213677
2660  2023-10-31 14:40:31.245589
2661  2023-10-31 14:40:31.277466
2662  2023-10-31 14:40:31.309407
2663  2023-10-31 14:40:31.341323
2664  2023-10-31 14:40:31.373236
2665  2023-10-31 14:40:31.405154
2666  2023-10-31 14:40:31.437068
2667  2023-10-31 14:40:31.468980
2668  2023-10-31 14:40:31.517827
2669  2023-10-31 14:40:31.549764
2670  2023-10-31 14:40:31.581651
2671  2023-10-31 14:40:31.613600
2672  2023-10-31 14:40:31.645517
2673  2023-10-31 14:40:31.677446
2674  2023-10-31 14:40:31.709344
2675  2023-10-31 14:40:31.741254
2676  2023-10-31 14:40:31.773180
2677  2023-10-31 14:40:31.805109
2678  2023-10-31 14:40:31.837966
2679  2023-10-31 14:40:31.869887
2680  2023-10-31 14:40:31.917781
2681  2023-10-31 14:40:31.949668
2682  2023-10-31 14:40:31.981608
2683  2023-10-31 14:40:32.013547
2684  2023-10-31 14:40:32.045437
2685  2023-10-31 14:40:32.077326
2686  2023-10-31 14:40:32.109293
2687  2023-10-31 14:40:32.141193
2688  2023-10-31 14:40:32.173096
2689  2023-10-31 14:40:32.205982
2690  2023-10-31 14:40:32.236899
2691  2023-10-31 14:40:32.269849
2692  2023-10-31 14:40:32.317712
2693  2023-10-31 14:40:32.349625
2694  2023-10-31 14:40:32.381541
2695  2023-10-31 14:40:32.413476
2696  2023-10-31 14:40:32.445381
2697  2023-10-31 14:40:32.477259
2698  2023-10-31 14:40:32.509200
2699  2023-10-31 14:40:32.541113
2700  2023-10-31 14:40:32.574058
2701  2023-10-31 14:40:32.605955
2702  2023-10-31 14:40:32.637867
2703  2023-10-31 14:40:32.669797
2704  2023-10-31 14:40:32.717641
2705  2023-10-31 14:40:32.749533
2706  2023-10-31 14:40:32.781444
2707  2023-10-31 14:40:32.813405
2708  2023-10-31 14:40:32.845309
2709  2023-10-31 14:40:32.877240
2710  2023-10-31 14:40:32.909106
2711  2023-10-31 14:40:32.941048
2712  2023-10-31 14:40:32.973958
2713  2023-10-31 14:40:33.005894
2714  2023-10-31 14:40:33.037786
2715  2023-10-31 14:40:33.069677
2716  2023-10-31 14:40:33.117545
2717  2023-10-31 14:40:33.149506
2718  2023-10-31 14:40:33.181416
2719  2023-10-31 14:40:33.213318
2720  2023-10-31 14:40:33.245243
2721  2023-10-31 14:40:33.278115
2722  2023-10-31 14:40:33.310057
2723  2023-10-31 14:40:33.340981
2724  2023-10-31 14:40:33.373890
2725  2023-10-31 14:40:33.405801
2726  2023-10-31 14:40:33.437691
2727  2023-10-31 14:40:33.469640
2728  2023-10-31 14:40:33.517519
2729  2023-10-31 14:40:33.549428
2730  2023-10-31 14:40:33.581335
2731  2023-10-31 14:40:33.613220
2732  2023-10-31 14:40:33.645189
2733  2023-10-31 14:40:33.677061
2734  2023-10-31 14:40:33.708991
2735  2023-10-31 14:40:33.741907
2736  2023-10-31 14:40:33.773817
2737  2023-10-31 14:40:33.805709
2738  2023-10-31 14:40:33.837621
2739  2023-10-31 14:40:33.884530
2740  2023-10-31 14:40:33.917445
2741  2023-10-31 14:40:33.949355
2742  2023-10-31 14:40:33.981270
2743  2023-10-31 14:40:34.013187
2744  2023-10-31 14:40:34.045103
2745  2023-10-31 14:40:34.078024
2746  2023-10-31 14:40:34.108920
2747  2023-10-31 14:40:34.141839
2748  2023-10-31 14:40:34.173753
2749  2023-10-31 14:40:34.205666
2750  2023-10-31 14:40:34.237579
2751  2023-10-31 14:40:34.269497
2752  2023-10-31 14:40:34.318340
2753  2023-10-31 14:40:34.349280
2754  2023-10-31 14:40:34.381211
2755  2023-10-31 14:40:34.413117
2756  2023-10-31 14:40:34.445995
2757  2023-10-31 14:40:34.477909
2758  2023-10-31 14:40:34.509871
2759  2023-10-31 14:40:34.541788
2760  2023-10-31 14:40:34.573652
2761  2023-10-31 14:40:34.605571
2762  2023-10-31 14:40:34.637486
2763  2023-10-31 14:40:34.669400
2764  2023-10-31 14:40:34.717268
2765  2023-10-31 14:40:34.749184
2766  2023-10-31 14:40:34.782096
2767  2023-10-31 14:40:34.813039
2768  2023-10-31 14:40:34.845950
2769  2023-10-31 14:40:34.877875
2770  2023-10-31 14:40:34.909782
2771  2023-10-31 14:40:34.941696
2772  2023-10-31 14:40:34.973582
2773  2023-10-31 14:40:35.005523
2774  2023-10-31 14:40:35.037464
2775  2023-10-31 14:40:35.069389
2776  2023-10-31 14:40:35.117200
2777  2023-10-31 14:40:35.149153
2778  2023-10-31 14:40:35.181063
2779  2023-10-31 14:40:35.212970
2780  2023-10-31 14:40:35.245882
2781  2023-10-31 14:40:35.277770
2782  2023-10-31 14:40:35.309717
2783  2023-10-31 14:40:35.341635
2784  2023-10-31 14:40:35.373552
2785  2023-10-31 14:40:35.405467
2786  2023-10-31 14:40:35.437389
2787  2023-10-31 14:40:35.469312
2788  2023-10-31 14:40:35.517130
2789  2023-10-31 14:40:35.549045
2790  2023-10-31 14:40:35.581000
2791  2023-10-31 14:40:35.613872
2792  2023-10-31 14:40:35.645787
2793  2023-10-31 14:40:35.677701
2794  2023-10-31 14:40:35.709616
2795  2023-10-31 14:40:35.741529
2796  2023-10-31 14:40:35.773445
2797  2023-10-31 14:40:35.805413
2798  2023-10-31 14:40:35.837313
2799  2023-10-31 14:40:35.869224
2800  2023-10-31 14:40:35.918059
2801  2023-10-31 14:40:35.949972
2802  2023-10-31 14:40:35.981888
2803  2023-10-31 14:40:36.013828
2804  2023-10-31 14:40:36.045754
2805  2023-10-31 14:40:36.077673
2806  2023-10-31 14:40:36.109583
2807  2023-10-31 14:40:36.141491
2808  2023-10-31 14:40:36.173409
2809  2023-10-31 14:40:36.205317
2810  2023-10-31 14:40:36.237205
2811  2023-10-31 14:40:36.270145
2812  2023-10-31 14:40:36.317991
2813  2023-10-31 14:40:36.349904
2814  2023-10-31 14:40:36.381819
2815  2023-10-31 14:40:36.413732
2816  2023-10-31 14:40:36.445684
2817  2023-10-31 14:40:36.477589
2818  2023-10-31 14:40:36.509517
2819  2023-10-31 14:40:36.541395
2820  2023-10-31 14:40:36.573307
2821  2023-10-31 14:40:36.605247
2822  2023-10-31 14:40:36.637162
2823  2023-10-31 14:40:36.669089
2824  2023-10-31 14:40:36.717920
2825  2023-10-31 14:40:36.749834
2826  2023-10-31 14:40:36.781789
2827  2023-10-31 14:40:36.813692
2828  2023-10-31 14:40:36.845606
2829  2023-10-31 14:40:36.877521
2830  2023-10-31 14:40:36.909444
2831  2023-10-31 14:40:36.941353
2832  2023-10-31 14:40:36.973282
2833  2023-10-31 14:40:37.005152
2834  2023-10-31 14:40:37.038092
2835  2023-10-31 14:40:37.069008
2836  2023-10-31 14:40:37.117851
2837  2023-10-31 14:40:37.149766
2838  2023-10-31 14:40:37.181718
2839  2023-10-31 14:40:37.213620
2840  2023-10-31 14:40:37.245549
2841  2023-10-31 14:40:37.277479
2842  2023-10-31 14:40:37.309368
2843  2023-10-31 14:40:37.341282
2844  2023-10-31 14:40:37.373194
2845  2023-10-31 14:40:37.405135
2846  2023-10-31 14:40:37.437029
2847  2023-10-31 14:40:37.469909
2848  2023-10-31 14:40:37.517782
2849  2023-10-31 14:40:37.549696
2850  2023-10-31 14:40:37.581610
2851  2023-10-31 14:40:37.613525
2852  2023-10-31 14:40:37.645440
2853  2023-10-31 14:40:37.677390
2854  2023-10-31 14:40:37.709302
2855  2023-10-31 14:40:37.741212
2856  2023-10-31 14:40:37.773128
2857  2023-10-31 14:40:37.805039
2858  2023-10-31 14:40:37.837965
2859  2023-10-31 14:40:37.869876
2860  2023-10-31 14:40:37.917712
2861  2023-10-31 14:40:37.949658
2862  2023-10-31 14:40:37.981541
2863  2023-10-31 14:40:38.013485
2864  2023-10-31 14:40:38.045399
2865  2023-10-31 14:40:38.077318
2866  2023-10-31 14:40:38.109236
2867  2023-10-31 14:40:38.141159
2868  2023-10-31 14:40:38.174052
2869  2023-10-31 14:40:38.204947
2870  2023-10-31 14:40:38.237886
2871  2023-10-31 14:40:38.269799
2872  2023-10-31 14:40:38.317643
2873  2023-10-31 14:40:38.349558
2874  2023-10-31 14:40:38.381510
2875  2023-10-31 14:40:38.413391
2876  2023-10-31 14:40:38.445327
2877  2023-10-31 14:40:38.477242
2878  2023-10-31 14:40:38.509167
2879  2023-10-31 14:40:38.541049
2880  2023-10-31 14:40:38.572987
2881  2023-10-31 14:40:38.605902
2882  2023-10-31 14:40:38.637821
2883  2023-10-31 14:40:38.669702
2884  2023-10-31 14:40:38.717574
2885  2023-10-31 14:40:38.750494
2886  2023-10-31 14:40:38.781431
2887  2023-10-31 14:40:38.813318
2888  2023-10-31 14:40:38.845261
2889  2023-10-31 14:40:38.877173
2890  2023-10-31 14:40:38.909090
2891  2023-10-31 14:40:38.941974
2892  2023-10-31 14:40:38.973918
2893  2023-10-31 14:40:39.005829
2894  2023-10-31 14:40:39.037748
2895  2023-10-31 14:40:39.069632
2896  2023-10-31 14:40:39.117505
2897  2023-10-31 14:40:39.149420
2898  2023-10-31 14:40:39.182383
2899  2023-10-31 14:40:39.213278
2900  2023-10-31 14:40:39.245195
2901  2023-10-31 14:40:39.277080
2902  2023-10-31 14:40:39.309021
2903  2023-10-31 14:40:39.341930
2904  2023-10-31 14:40:39.373877
2905  2023-10-31 14:40:39.405773
2906  2023-10-31 14:40:39.437649
2907  2023-10-31 14:40:39.469596
2908  2023-10-31 14:40:39.517435
2909  2023-10-31 14:40:39.549351
2910  2023-10-31 14:40:39.581290
2911  2023-10-31 14:40:39.613235
2912  2023-10-31 14:40:39.645121
2913  2023-10-31 14:40:39.677046
2914  2023-10-31 14:40:39.709960
2915  2023-10-31 14:40:39.741861
2916  2023-10-31 14:40:39.773784
2917  2023-10-31 14:40:39.805702
2918  2023-10-31 14:40:39.837607
2919  2023-10-31 14:40:39.869495
2920  2023-10-31 14:40:39.917366
2921  2023-10-31 14:40:39.949281
2922  2023-10-31 14:40:39.981227
2923  2023-10-31 14:40:40.013143
2924  2023-10-31 14:40:40.046022
2925  2023-10-31 14:40:40.077963
2926  2023-10-31 14:40:40.109851
2927  2023-10-31 14:40:40.141800
2928  2023-10-31 14:40:40.173681
2929  2023-10-31 14:40:40.205624
2930  2023-10-31 14:40:40.237510
2931  2023-10-31 14:40:40.269452
2932  2023-10-31 14:40:40.317332
2933  2023-10-31 14:40:40.349238
2934  2023-10-31 14:40:40.381151
2935  2023-10-31 14:40:40.413098
2936  2023-10-31 14:40:40.444955
2937  2023-10-31 14:40:40.477904
2938  2023-10-31 14:40:40.509830
2939  2023-10-31 14:40:40.541725
2940  2023-10-31 14:40:40.573612
2941  2023-10-31 14:40:40.605553
2942  2023-10-31 14:40:40.637468
2943  2023-10-31 14:40:40.669385
2944  2023-10-31 14:40:40.717227
2945  2023-10-31 14:40:40.749142
2946  2023-10-31 14:40:40.781082
2947  2023-10-31 14:40:40.813996
2948  2023-10-31 14:40:40.844922
2949  2023-10-31 14:40:40.877834
2950  2023-10-31 14:40:40.909746
2951  2023-10-31 14:40:40.941659
2952  2023-10-31 14:40:40.973575
2953  2023-10-31 14:40:41.005494
2954  2023-10-31 14:40:41.037403
2955  2023-10-31 14:40:41.069317
2956  2023-10-31 14:40:41.118183
2957  2023-10-31 14:40:41.149072
2958  2023-10-31 14:40:41.181022
2959  2023-10-31 14:40:41.213899
2960  2023-10-31 14:40:41.245841
2961  2023-10-31 14:40:41.277763
2962  2023-10-31 14:40:41.309695
2963  2023-10-31 14:40:41.341586
2964  2023-10-31 14:40:41.373473
2965  2023-10-31 14:40:41.405422
2966  2023-10-31 14:40:41.437326
2967  2023-10-31 14:40:41.470215
2968  2023-10-31 14:40:41.517089
2969  2023-10-31 14:40:41.550027
2970  2023-10-31 14:40:41.581942
2971  2023-10-31 14:40:41.613831
2972  2023-10-31 14:40:41.645773
2973  2023-10-31 14:40:41.677705
2974  2023-10-31 14:40:41.709578
2975  2023-10-31 14:40:41.741522
2976  2023-10-31 14:40:41.773451
2977  2023-10-31 14:40:41.805363
2978  2023-10-31 14:40:41.837259
2979  2023-10-31 14:40:41.869179
2980  2023-10-31 14:40:41.917019
2981  2023-10-31 14:40:41.949935
2982  2023-10-31 14:40:41.981874
2983  2023-10-31 14:40:42.013761
2984  2023-10-31 14:40:42.045705
2985  2023-10-31 14:40:42.077622
2986  2023-10-31 14:40:42.109532
2987  2023-10-31 14:40:42.141461
2988  2023-10-31 14:40:42.173361
2989  2023-10-31 14:40:42.205280
2990  2023-10-31 14:40:42.237207
2991  2023-10-31 14:40:42.269109
2992  2023-10-31 14:40:42.316949
2993  2023-10-31 14:40:42.349889
2994  2023-10-31 14:40:42.381803
2995  2023-10-31 14:40:42.413745
2996  2023-10-31 14:40:42.445635
2997  2023-10-31 14:40:42.477551
2998  2023-10-31 14:40:42.509476
2999  2023-10-31 14:40:42.541393
3000  2023-10-31 14:40:42.573267
3001  2023-10-31 14:40:42.605180
3002  2023-10-31 14:40:42.637126
3003  2023-10-31 14:40:42.669045
3004  2023-10-31 14:40:42.717878
3005  2023-10-31 14:40:42.749819
3006  2023-10-31 14:40:42.781737
3007  2023-10-31 14:40:42.813658
3008  2023-10-31 14:40:42.845576
3009  2023-10-31 14:40:42.877492
3010  2023-10-31 14:40:42.909397
3011  2023-10-31 14:40:42.941312
3012  2023-10-31 14:40:42.973245
3013  2023-10-31 14:40:43.005137
3014  2023-10-31 14:40:43.037054
3015  2023-10-31 14:40:43.068969
3016  2023-10-31 14:40:43.117836
3017  2023-10-31 14:40:43.149753
3018  2023-10-31 14:40:43.181678
3019  2023-10-31 14:40:43.213581
3020  2023-10-31 14:40:43.245496
3021  2023-10-31 14:40:43.277422
3022  2023-10-31 14:40:43.309326
3023  2023-10-31 14:40:43.341254
3024  2023-10-31 14:40:43.374126
3025  2023-10-31 14:40:43.405045
3026  2023-10-31 14:40:43.436984
3027  2023-10-31 14:40:43.469867
3028  2023-10-31 14:40:43.517739
3029  2023-10-31 14:40:43.549683
3030  2023-10-31 14:40:43.581613
3031  2023-10-31 14:40:43.613510
3032  2023-10-31 14:40:43.645425
3033  2023-10-31 14:40:43.677339
3034  2023-10-31 14:40:43.709257
3035  2023-10-31 14:40:43.741174
3036  2023-10-31 14:40:43.774055
3037  2023-10-31 14:40:43.805996
3038  2023-10-31 14:40:43.837935
3039  2023-10-31 14:40:43.869827
3040  2023-10-31 14:40:43.917670
3041  2023-10-31 14:40:43.949613
3042  2023-10-31 14:40:43.981540
3043  2023-10-31 14:40:44.013445
3044  2023-10-31 14:40:44.045330
3045  2023-10-31 14:40:44.077284
3046  2023-10-31 14:40:44.109198
3047  2023-10-31 14:40:44.141119
3048  2023-10-31 14:40:44.173015
3049  2023-10-31 14:40:44.205899
3050  2023-10-31 14:40:44.237815
3051  2023-10-31 14:40:44.269729
3052  2023-10-31 14:40:44.317600
3053  2023-10-31 14:40:44.349570
3054  2023-10-31 14:40:44.381430
3055  2023-10-31 14:40:44.413350
3056  2023-10-31 14:40:44.445260
3057  2023-10-31 14:40:44.477212
3058  2023-10-31 14:40:44.510086
3059  2023-10-31 14:40:44.541031
3060  2023-10-31 14:40:44.573966
3061  2023-10-31 14:40:44.605857
3062  2023-10-31 14:40:44.637773
3063  2023-10-31 14:40:44.669706
3064  2023-10-31 14:40:44.717566
3065  2023-10-31 14:40:44.749478
3066  2023-10-31 14:40:44.781415
3067  2023-10-31 14:40:44.813303
3068  2023-10-31 14:40:44.845192
3069  2023-10-31 14:40:44.877145
3070  2023-10-31 14:40:44.909020
3071  2023-10-31 14:40:44.941960
3072  2023-10-31 14:40:44.973894
3073  2023-10-31 14:40:45.005797
3074  2023-10-31 14:40:45.037706
3075  2023-10-31 14:40:45.069626
3076  2023-10-31 14:40:45.117490
3077  2023-10-31 14:40:45.149422
3078  2023-10-31 14:40:45.181319
3079  2023-10-31 14:40:45.213253
3080  2023-10-31 14:40:45.245172
3081  2023-10-31 14:40:45.277063
3082  2023-10-31 14:40:45.309952
3083  2023-10-31 14:40:45.341899
3084  2023-10-31 14:40:45.373777
3085  2023-10-31 14:40:45.405727
3086  2023-10-31 14:40:45.437607
3087  2023-10-31 14:40:45.469522
3088  2023-10-31 14:40:45.517426
3089  2023-10-31 14:40:45.549337
3090  2023-10-31 14:40:45.581250
3091  2023-10-31 14:40:45.614144
3092  2023-10-31 14:40:45.646072
3093  2023-10-31 14:40:45.677966
3094  2023-10-31 14:40:45.709888
3095  2023-10-31 14:40:45.741795
3096  2023-10-31 14:40:45.774734
3097  2023-10-31 14:40:45.805665
3098  2023-10-31 14:40:45.837566
3099  2023-10-31 14:40:45.871491
3100  2023-10-31 14:40:45.917362
3101  2023-10-31 14:40:45.951235
3102  2023-10-31 14:40:45.983188
3103  2023-10-31 14:40:46.015097
3104  2023-10-31 14:40:46.047025
3105  2023-10-31 14:40:46.078947
3106  2023-10-31 14:40:46.110834
3107  2023-10-31 14:40:46.142763
3108  2023-10-31 14:40:46.174683
3109  2023-10-31 14:40:46.206595
3110  2023-10-31 14:40:46.238492
3111  2023-10-31 14:40:46.270386
3112  2023-10-31 14:40:46.319276
3113  2023-10-31 14:40:46.351209
3114  2023-10-31 14:40:46.382084
3115  2023-10-31 14:40:46.415021
3116  2023-10-31 14:40:46.446938
3117  2023-10-31 14:40:46.478870
3118  2023-10-31 14:40:46.510774
3119  2023-10-31 14:40:46.542695
3120  2023-10-31 14:40:46.574606
3121  2023-10-31 14:40:46.606513
3122  2023-10-31 14:40:46.638445
3123  2023-10-31 14:40:46.670351
3124  2023-10-31 14:40:46.718223
3125  2023-10-31 14:40:46.751125
3126  2023-10-31 14:40:46.782013
3127  2023-10-31 14:40:46.813954
3128  2023-10-31 14:40:46.846841
3129  2023-10-31 14:40:46.878783
3130  2023-10-31 14:40:46.910702
3131  2023-10-31 14:40:46.942589
3132  2023-10-31 14:40:46.974543
3133  2023-10-31 14:40:47.006442
3134  2023-10-31 14:40:47.038371
3135  2023-10-31 14:40:47.071269
3136  2023-10-31 14:40:47.118152
3137  2023-10-31 14:40:47.150067
3138  2023-10-31 14:40:47.181970
3139  2023-10-31 14:40:47.213896
3140  2023-10-31 14:40:47.246797
3141  2023-10-31 14:40:47.277723
3142  2023-10-31 14:40:47.309637
3143  2023-10-31 14:40:47.342563
3144  2023-10-31 14:40:47.374460
3145  2023-10-31 14:40:47.406371
3146  2023-10-31 14:40:47.438259
3147  2023-10-31 14:40:47.470212
3148  2023-10-31 14:40:47.518080
3149  2023-10-31 14:40:47.549960
3150  2023-10-31 14:40:47.581874
3151  2023-10-31 14:40:47.613822
3152  2023-10-31 14:40:47.645704
3153  2023-10-31 14:40:47.677663
3154  2023-10-31 14:40:47.709569
3155  2023-10-31 14:40:47.741465
3156  2023-10-31 14:40:47.774406
3157  2023-10-31 14:40:47.806275
3158  2023-10-31 14:40:47.838232
3159  2023-10-31 14:40:47.870142
3160  2023-10-31 14:40:47.917975
3161  2023-10-31 14:40:47.949891
3162  2023-10-31 14:40:47.981839
3163  2023-10-31 14:40:48.013750
3164  2023-10-31 14:40:48.045663
3165  2023-10-31 14:40:48.077583
3166  2023-10-31 14:40:48.109465
3167  2023-10-31 14:40:48.141379
3168  2023-10-31 14:40:48.173320
3169  2023-10-31 14:40:48.205209
3170  2023-10-31 14:40:48.238149
3171  2023-10-31 14:40:48.270035
3172  2023-10-31 14:40:48.317935
3173  2023-10-31 14:40:48.349864
3174  2023-10-31 14:40:48.381806
3175  2023-10-31 14:40:48.413679
3176  2023-10-31 14:40:48.446593
3177  2023-10-31 14:40:48.477518
3178  2023-10-31 14:40:48.509432
3179  2023-10-31 14:40:48.541342
3180  2023-10-31 14:40:48.573251
3181  2023-10-31 14:40:48.606138
3182  2023-10-31 14:40:48.637084
3183  2023-10-31 14:40:48.669967
3184  2023-10-31 14:40:48.717838
3185  2023-10-31 14:40:48.749753
3186  2023-10-31 14:40:48.781670
3187  2023-10-31 14:40:48.813624
3188  2023-10-31 14:40:48.847518
3189  2023-10-31 14:40:48.877454
3190  2023-10-31 14:40:48.909363
3191  2023-10-31 14:40:48.941268
3192  2023-10-31 14:40:48.975179
3193  2023-10-31 14:40:49.005104
3194  2023-10-31 14:40:49.037034
3195  2023-10-31 14:40:49.069896
3196  2023-10-31 14:40:49.117769
3197  2023-10-31 14:40:49.149685
3198  2023-10-31 14:40:49.181656
3199  2023-10-31 14:40:49.214511
3200  2023-10-31 14:40:49.245460
3201  2023-10-31 14:40:49.277370
3202  2023-10-31 14:40:49.309286
3203  2023-10-31 14:40:49.343198
3204  2023-10-31 14:40:49.375110
3205  2023-10-31 14:40:49.405048
3206  2023-10-31 14:40:49.437951
3207  2023-10-31 14:40:49.469862
3208  2023-10-31 14:40:49.517743
3209  2023-10-31 14:40:49.549655
3210  2023-10-31 14:40:49.582525
3211  2023-10-31 14:40:49.614487
3212  2023-10-31 14:40:49.645392
3213  2023-10-31 14:40:49.677273
3214  2023-10-31 14:40:49.709200
3215  2023-10-31 14:40:49.743100
3216  2023-10-31 14:40:49.774016
3217  2023-10-31 14:40:49.805928
3218  2023-10-31 14:40:49.838840
3219  2023-10-31 14:40:49.869797
3220  2023-10-31 14:40:49.917662
3221  2023-10-31 14:40:49.949589
3222  2023-10-31 14:40:49.981460
3223  2023-10-31 14:40:50.014403
3224  2023-10-31 14:40:50.046285
3225  2023-10-31 14:40:50.078253
3226  2023-10-31 14:40:50.109118
3227  2023-10-31 14:40:50.141078
3228  2023-10-31 14:40:50.173946
3229  2023-10-31 14:40:50.206886
3230  2023-10-31 14:40:50.237806
3231  2023-10-31 14:40:50.269733
3232  2023-10-31 14:40:50.318605
3233  2023-10-31 14:40:50.349503
3234  2023-10-31 14:40:50.381417
3235  2023-10-31 14:40:50.414329
3236  2023-10-31 14:40:50.447250
3237  2023-10-31 14:40:50.478184
3238  2023-10-31 14:40:50.510046
3239  2023-10-31 14:40:50.541001
3240  2023-10-31 14:40:50.574899
3241  2023-10-31 14:40:50.606847
3242  2023-10-31 14:40:50.637733
3243  2023-10-31 14:40:50.669671
3244  2023-10-31 14:40:50.717525
3245  2023-10-31 14:40:50.749446
3246  2023-10-31 14:40:50.781354
3247  2023-10-31 14:40:50.814267
3248  2023-10-31 14:40:50.846174
3249  2023-10-31 14:40:50.878066
3250  2023-10-31 14:40:50.910018
3251  2023-10-31 14:40:50.941927
3252  2023-10-31 14:40:50.973832
3253  2023-10-31 14:40:51.005722
3254  2023-10-31 14:40:51.037671
3255  2023-10-31 14:40:51.069551
3256  2023-10-31 14:40:51.117458
3257  2023-10-31 14:40:51.149337
3258  2023-10-31 14:40:51.181277
3259  2023-10-31 14:40:51.213202
3260  2023-10-31 14:40:51.246117
3261  2023-10-31 14:40:51.279017
3262  2023-10-31 14:40:51.309953
3263  2023-10-31 14:40:51.341824
3264  2023-10-31 14:40:51.373741
3265  2023-10-31 14:40:51.405692
3266  2023-10-31 14:40:51.437613
3267  2023-10-31 14:40:51.469515
3268  2023-10-31 14:40:51.517404
3269  2023-10-31 14:40:51.549317
3270  2023-10-31 14:40:51.581220
3271  2023-10-31 14:40:51.613126
3272  2023-10-31 14:40:51.646037
3273  2023-10-31 14:40:51.676957
3274  2023-10-31 14:40:51.709877
3275  2023-10-31 14:40:51.741814
3276  2023-10-31 14:40:51.773706
3277  2023-10-31 14:40:51.805611
3278  2023-10-31 14:40:51.837538
3279  2023-10-31 14:40:51.869446
3280  2023-10-31 14:40:51.917313
3281  2023-10-31 14:40:51.949225
3282  2023-10-31 14:40:51.981123
3283  2023-10-31 14:40:52.013028
3284  2023-10-31 14:40:52.045941
3285  2023-10-31 14:40:52.077916
3286  2023-10-31 14:40:52.109798
3287  2023-10-31 14:40:52.141723
3288  2023-10-31 14:40:52.173602
3289  2023-10-31 14:40:52.205558
3290  2023-10-31 14:40:52.237468
3291  2023-10-31 14:40:52.269390
3292  2023-10-31 14:40:52.317216
3293  2023-10-31 14:40:52.349163
3294  2023-10-31 14:40:52.381044
3295  2023-10-31 14:40:52.413957
3296  2023-10-31 14:40:52.446872
3297  2023-10-31 14:40:52.477819
3298  2023-10-31 14:40:52.509728
3299  2023-10-31 14:40:52.541644
3300  2023-10-31 14:40:52.573579
3301  2023-10-31 14:40:52.605470
3302  2023-10-31 14:40:52.637393
3303  2023-10-31 14:40:52.669312
3304  2023-10-31 14:40:52.717200
3305  2023-10-31 14:40:52.749106
3306  2023-10-31 14:40:52.781016
3307  2023-10-31 14:40:52.812938
3308  2023-10-31 14:40:52.845830
3309  2023-10-31 14:40:52.877742
3310  2023-10-31 14:40:52.909670
3311  2023-10-31 14:40:52.941580
3312  2023-10-31 14:40:52.973464
3313  2023-10-31 14:40:53.005376
3314  2023-10-31 14:40:53.037290
3315  2023-10-31 14:40:53.100122
3316  2023-10-31 14:40:53.119073
3317  2023-10-31 14:40:53.149988
3318  2023-10-31 14:40:53.181908
3319  2023-10-31 14:40:53.213864
3320  2023-10-31 14:40:53.245759
3321  2023-10-31 14:40:53.277647
3322  2023-10-31 14:40:53.309601
3323  2023-10-31 14:40:53.341507
3324  2023-10-31 14:40:53.373457
3325  2023-10-31 14:40:53.405306
3326  2023-10-31 14:40:53.437220
3327  2023-10-31 14:40:53.469134
3328  2023-10-31 14:40:53.517006
3329  2023-10-31 14:40:53.548948
3330  2023-10-31 14:40:53.581833
3331  2023-10-31 14:40:53.613774
3332  2023-10-31 14:40:53.645720
3333  2023-10-31 14:40:53.677610
3334  2023-10-31 14:40:53.709521
3335  2023-10-31 14:40:53.741439
3336  2023-10-31 14:40:53.773354
3337  2023-10-31 14:40:53.805271
3338  2023-10-31 14:40:53.837177
3339  2023-10-31 14:40:53.869070
3340  2023-10-31 14:40:53.917942
3341  2023-10-31 14:40:53.949851
3342  2023-10-31 14:40:53.981765
3343  2023-10-31 14:40:54.013680
3344  2023-10-31 14:40:54.045594
3345  2023-10-31 14:40:54.077509
3346  2023-10-31 14:40:54.109468
3347  2023-10-31 14:40:54.141363
3348  2023-10-31 14:40:54.173283
3349  2023-10-31 14:40:54.205168
3350  2023-10-31 14:40:54.237144
3351  2023-10-31 14:40:54.269052
3352  2023-10-31 14:40:54.317922
3353  2023-10-31 14:40:54.349807
3354  2023-10-31 14:40:54.381748
3355  2023-10-31 14:40:54.413642
3356  2023-10-31 14:40:54.445525
3357  2023-10-31 14:40:54.477472
3358  2023-10-31 14:40:54.509395
3359  2023-10-31 14:40:54.541295
3360  2023-10-31 14:40:54.574207
3361  2023-10-31 14:40:54.606096
3362  2023-10-31 14:40:54.637039
3363  2023-10-31 14:40:54.669924
3364  2023-10-31 14:40:54.717822
3365  2023-10-31 14:40:54.749739
3366  2023-10-31 14:40:54.781654
3367  2023-10-31 14:40:54.813542
3368  2023-10-31 14:40:54.845511
3369  2023-10-31 14:40:54.877422
3370  2023-10-31 14:40:54.909329
3371  2023-10-31 14:40:54.942226
3372  2023-10-31 14:40:54.973119
3373  2023-10-31 14:40:55.006027
3374  2023-10-31 14:40:55.038010
3375  2023-10-31 14:40:55.069858
3376  2023-10-31 14:40:55.117769
3377  2023-10-31 14:40:55.149645
3378  2023-10-31 14:40:55.181607
3379  2023-10-31 14:40:55.213472
3380  2023-10-31 14:40:55.245387
3381  2023-10-31 14:40:55.277310
3382  2023-10-31 14:40:55.309219
3383  2023-10-31 14:40:55.341134
3384  2023-10-31 14:40:55.373077
3385  2023-10-31 14:40:55.405956
3386  2023-10-31 14:40:55.437904
3387  2023-10-31 14:40:55.530625
3388  2023-10-31 14:40:55.550576
3389  2023-10-31 14:40:55.581488
3390  2023-10-31 14:40:55.613406
3391  2023-10-31 14:40:55.645345
3392  2023-10-31 14:40:55.677271
3393  2023-10-31 14:40:55.709175
3394  2023-10-31 14:40:55.741087
3395  2023-10-31 14:40:55.773014
3396  2023-10-31 14:40:55.805936
3397  2023-10-31 14:40:55.837829
3398  2023-10-31 14:40:55.869744
3399  2023-10-31 14:40:55.917615
3400  2023-10-31 14:40:55.949550
3401  2023-10-31 14:40:55.981455
3402  2023-10-31 14:40:56.013367
3403  2023-10-31 14:40:56.045276
3404  2023-10-31 14:40:56.077208
3405  2023-10-31 14:40:56.110101
3406  2023-10-31 14:40:56.140992
3407  2023-10-31 14:40:56.173908
3408  2023-10-31 14:40:56.205861
3409  2023-10-31 14:40:56.237733
3410  2023-10-31 14:40:56.269662
3411  2023-10-31 14:40:56.317520
3412  2023-10-31 14:40:56.349461
3413  2023-10-31 14:40:56.381353
3414  2023-10-31 14:40:56.413294
3415  2023-10-31 14:40:56.445205
3416  2023-10-31 14:40:56.477133
3417  2023-10-31 14:40:56.509035
3418  2023-10-31 14:40:56.540948
3419  2023-10-31 14:40:56.573880
3420  2023-10-31 14:40:56.605782
3421  2023-10-31 14:40:56.637726
3422  2023-10-31 14:40:56.669628
3423  2023-10-31 14:40:56.717479
3424  2023-10-31 14:40:56.749369
3425  2023-10-31 14:40:56.781334
3426  2023-10-31 14:40:56.813221
3427  2023-10-31 14:40:56.846140
3428  2023-10-31 14:40:56.877053
3429  2023-10-31 14:40:56.908978
3430  2023-10-31 14:40:56.941888
3431  2023-10-31 14:40:56.973791
3432  2023-10-31 14:40:57.005708
3433  2023-10-31 14:40:57.037620
3434  2023-10-31 14:40:57.069529
3435  2023-10-31 14:40:57.117438
3436  2023-10-31 14:40:57.149324
3437  2023-10-31 14:40:57.181237
3438  2023-10-31 14:40:57.213130
3439  2023-10-31 14:40:57.245076
3440  2023-10-31 14:40:57.277953
3441  2023-10-31 14:40:57.309872
3442  2023-10-31 14:40:57.341809
3443  2023-10-31 14:40:57.373733
3444  2023-10-31 14:40:57.405637
3445  2023-10-31 14:40:57.437555
3446  2023-10-31 14:40:57.469475
3447  2023-10-31 14:40:57.517340
3448  2023-10-31 14:40:57.549231
3449  2023-10-31 14:40:57.581141
3450  2023-10-31 14:40:57.613088
3451  2023-10-31 14:40:57.646003
3452  2023-10-31 14:40:57.677922
3453  2023-10-31 14:40:57.709826
3454  2023-10-31 14:40:57.741746
3455  2023-10-31 14:40:57.773631
3456  2023-10-31 14:40:57.805590
3457  2023-10-31 14:40:57.837483
3458  2023-10-31 14:40:57.869424
3459  2023-10-31 14:40:57.917270
3460  2023-10-31 14:40:57.949158
3461  2023-10-31 14:40:57.982079
3462  2023-10-31 14:40:58.013013
3463  2023-10-31 14:40:58.045926
3464  2023-10-31 14:40:58.077849
3465  2023-10-31 14:40:58.109766
3466  2023-10-31 14:40:58.141683
3467  2023-10-31 14:40:58.173604
3468  2023-10-31 14:40:58.205504
3469  2023-10-31 14:40:58.237397
3470  2023-10-31 14:40:58.269339
3471  2023-10-31 14:40:58.317181
3472  2023-10-31 14:40:58.349093
3473  2023-10-31 14:40:58.381052
3474  2023-10-31 14:40:58.413952
3475  2023-10-31 14:40:58.445861
3476  2023-10-31 14:40:58.477749
3477  2023-10-31 14:40:58.509706
3478  2023-10-31 14:40:58.541611
3479  2023-10-31 14:40:58.573492
3480  2023-10-31 14:40:58.605444
3481  2023-10-31 14:40:58.637368
3482  2023-10-31 14:40:58.669233
3483  2023-10-31 14:40:58.717108
3484  2023-10-31 14:40:58.749023
3485  2023-10-31 14:40:58.781937
3486  2023-10-31 14:40:58.813846
3487  2023-10-31 14:40:58.845761
3488  2023-10-31 14:40:58.877676
3489  2023-10-31 14:40:58.909591
3490  2023-10-31 14:40:58.941506
3491  2023-10-31 14:40:58.973448
3492  2023-10-31 14:40:59.005334
3493  2023-10-31 14:40:59.037248
3494  2023-10-31 14:40:59.070203
3495  2023-10-31 14:40:59.117064
3496  2023-10-31 14:40:59.149978
3497  2023-10-31 14:40:59.181896
3498  2023-10-31 14:40:59.213805
3499  2023-10-31 14:40:59.245742
3500  2023-10-31 14:40:59.277607
3501  2023-10-31 14:40:59.309521
3502  2023-10-31 14:40:59.341469
3503  2023-10-31 14:40:59.373385
3504  2023-10-31 14:40:59.405264
3505  2023-10-31 14:40:59.437183
3506  2023-10-31 14:40:59.469123
3507  2023-10-31 14:40:59.517001
3508  2023-10-31 14:40:59.549906
3509  2023-10-31 14:40:59.581819
3510  2023-10-31 14:40:59.613709
3511  2023-10-31 14:40:59.645648
3512  2023-10-31 14:40:59.677562
3513  2023-10-31 14:40:59.709483
3514  2023-10-31 14:40:59.741366
3515  2023-10-31 14:40:59.773317
3516  2023-10-31 14:40:59.805245
3517  2023-10-31 14:40:59.837160
3518  2023-10-31 14:40:59.869053
3519  2023-10-31 14:40:59.917925
3520  2023-10-31 14:40:59.949835
3521  2023-10-31 14:40:59.981724
3522  2023-10-31 14:41:00.013696
3523  2023-10-31 14:41:00.045581
3524  2023-10-31 14:41:00.077495
3525  2023-10-31 14:41:00.109410
3526  2023-10-31 14:41:00.141324
3527  2023-10-31 14:41:00.173240
3528  2023-10-31 14:41:00.205127
3529  2023-10-31 14:41:00.238046
3530  2023-10-31 14:41:00.269962
3531  2023-10-31 14:41:00.317853
3532  2023-10-31 14:41:00.349785
3533  2023-10-31 14:41:00.381705
3534  2023-10-31 14:41:00.413597
3535  2023-10-31 14:41:00.445517
3536  2023-10-31 14:41:00.477409
3537  2023-10-31 14:41:00.509313
3538  2023-10-31 14:41:00.541228
3539  2023-10-31 14:41:00.573169
3540  2023-10-31 14:41:00.605088
3541  2023-10-31 14:41:00.637970
3542  2023-10-31 14:41:00.669916
3543  2023-10-31 14:41:00.717782
3544  2023-10-31 14:41:00.749707
3545  2023-10-31 14:41:00.781587
3546  2023-10-31 14:41:00.813535
3547  2023-10-31 14:41:00.845444
3548  2023-10-31 14:41:00.877360
3549  2023-10-31 14:41:00.909312
3550  2023-10-31 14:41:00.941159
3551  2023-10-31 14:41:00.973102
3552  2023-10-31 14:41:01.054881
3553  2023-10-31 14:41:01.069821
3554  2023-10-31 14:41:01.117688
3555  2023-10-31 14:41:01.151625
3556  2023-10-31 14:41:01.181529
3557  2023-10-31 14:41:01.213459
3558  2023-10-31 14:41:01.245372
3559  2023-10-31 14:41:01.277289
3560  2023-10-31 14:41:01.309203
3561  2023-10-31 14:41:01.341116
